# Data Source: NASA GEOS5 Near-Real-Time
# Model Time = 2010-09-01 12:00:00
# Location = [  39.7393, -104.9900 ]
# Fields = [ Z(km), T(K), U(m/s), V(m/s), R(g/cm3), P(mbar) ]
# Ground Height = 1.589
  0.000      2.96410e+02       3.72352e+00      -1.72792e-01       1.19600e-03       1.01743e+03
  0.100      2.95746e+02       3.70734e+00      -2.06901e-01       1.18464e-03       1.00551e+03
  0.200      2.95082e+02       3.69955e+00      -2.56717e-01       1.17339e-03       9.93729e+02
  0.300      2.94418e+02       3.68215e+00      -2.88549e-01       1.16226e-03       9.82086e+02
  0.400      2.93755e+02       3.63792e+00      -2.69633e-01       1.15123e-03       9.70575e+02
  0.500      2.93092e+02       3.58330e+00      -2.06596e-01       1.14030e-03       9.59193e+02
  0.600      2.92430e+02       3.57994e+00      -1.59087e-01       1.12946e-03       9.47930e+02
  0.700      2.91766e+02       3.64726e+00      -1.65298e-01       1.11872e-03       9.36781e+02
  0.800      2.91093e+02       3.69880e+00      -2.04667e-01       1.10810e-03       9.25746e+02
  0.900      2.90414e+02       3.66123e+00      -2.46453e-01       1.09758e-03       9.14824e+02
  1.000      2.89761e+02       3.59923e+00      -2.50943e-01       1.08707e-03       9.04023e+02
  1.100      2.89172e+02       3.61441e+00      -1.81432e-01       1.07642e-03       8.93349e+02
  1.200      2.88611e+02       3.73575e+00      -7.95069e-02       1.06578e-03       8.82796e+02
  1.300      2.87986e+02       3.93962e+00      -4.26075e-02       1.05546e-03       8.72355e+02
  1.400      2.87285e+02       4.17930e+00      -9.50551e-02       1.04549e-03       8.62020e+02
  1.500      2.86649e+02       4.36607e+00      -1.18412e-01       1.03539e-03       8.51795e+02
  1.600      2.86215e+02       4.42105e+00       3.70790e-03       1.02465e-03       8.41688e+02
  1.700      2.85991e+02       4.36564e+00       2.62639e-01       1.01329e-03       8.31701e+02
  1.800      2.85930e+02       4.26324e+00       5.97206e-01       1.00149e-03       8.21838e+02
  1.900      2.85945e+02       4.16891e+00       9.45151e-01       9.89565e-04       8.12099e+02
  2.000      2.85883e+02       4.12414e+00       1.24277e+00       9.78051e-04       8.02475e+02
  2.100      2.85605e+02       4.16605e+00       1.43072e+00       9.67394e-04       7.92960e+02
  2.200      2.85156e+02       4.30343e+00       1.49004e+00       9.57420e-04       7.83549e+02
  2.300      2.84675e+02       4.53009e+00       1.42304e+00       9.47643e-04       7.74241e+02
  2.400      2.84269e+02       4.83724e+00       1.23649e+00       9.37710e-04       7.65032e+02
  2.500      2.83936e+02       5.20827e+00       9.50454e-01       9.27634e-04       7.55925e+02
  2.600      2.83653e+02       5.62513e+00       5.87860e-01       9.17497e-04       7.46920e+02
  2.700      2.83413e+02       6.07519e+00       1.87188e-01       9.07327e-04       7.38017e+02
  2.800      2.83234e+02       6.55391e+00      -1.89609e-01       8.97073e-04       7.29214e+02
  2.900      2.83130e+02       7.05713e+00      -4.80477e-01       8.86690e-04       7.20511e+02
  3.000      2.83045e+02       7.57366e+00      -6.62469e-01       8.76364e-04       7.11905e+02
  3.100      2.82850e+02       8.08557e+00      -7.50031e-01       8.66485e-04       7.03394e+02
  3.200      2.82421e+02       8.57603e+00      -7.59188e-01       8.57414e-04       6.94975e+02
  3.300      2.81766e+02       9.04862e+00      -7.07181e-01       8.49103e-04       6.86644e+02
  3.400      2.80993e+02       9.52268e+00      -6.12197e-01       8.41208e-04       6.78393e+02
  3.500      2.80208e+02       1.00164e+01      -4.92183e-01       8.33404e-04       6.70219e+02
  3.600      2.79441e+02       1.05238e+01      -3.60914e-01       8.25590e-04       6.62119e+02
  3.700      2.78668e+02       1.10195e+01      -2.28832e-01       8.17845e-04       6.54093e+02
  3.800      2.77861e+02       1.14781e+01      -1.05779e-01       8.10247e-04       6.46141e+02
  3.900      2.77021e+02       1.18896e+01       1.09062e-02       8.02795e-04       6.38263e+02
  4.000      2.76173e+02       1.22598e+01       1.36836e-01       7.95410e-04       6.30456e+02
  4.100      2.75345e+02       1.25954e+01       2.88169e-01       7.88012e-04       6.22720e+02
  4.200      2.74555e+02       1.29012e+01       4.76658e-01       7.80552e-04       6.15053e+02
  4.300      2.73801e+02       1.31796e+01       7.06510e-01       7.73035e-04       6.07459e+02
  4.400      2.73084e+02       1.34325e+01       9.81184e-01       7.65471e-04       5.99939e+02
  4.500      2.72401e+02       1.36633e+01       1.30062e+00       7.57871e-04       5.92496e+02
  4.600      2.71746e+02       1.38800e+01       1.65102e+00       7.50250e-04       5.85128e+02
  4.700      2.71115e+02       1.40924e+01       2.01521e+00       7.42624e-04       5.77835e+02
  4.800      2.70501e+02       1.43096e+01       2.37636e+00       7.35009e-04       5.70615e+02
  4.900      2.69902e+02       1.45373e+01       2.72248e+00       7.27415e-04       5.63469e+02
  5.000      2.69314e+02       1.47782e+01       3.04519e+00       7.19850e-04       5.56394e+02
  5.100      2.68735e+02       1.50352e+01       3.33621e+00       7.12321e-04       5.49391e+02
  5.200      2.68162e+02       1.53083e+01       3.59023e+00       7.04837e-04       5.42460e+02
  5.300      2.67587e+02       1.55885e+01       3.81109e+00       6.97422e-04       5.35601e+02
  5.400      2.67000e+02       1.58651e+01       4.00439e+00       6.90096e-04       5.28814e+02
  5.500      2.66394e+02       1.61277e+01       4.17564e+00       6.82884e-04       5.22100e+02
  5.600      2.65766e+02       1.63678e+01       4.32701e+00       6.75792e-04       5.15458e+02
  5.700      2.65116e+02       1.65795e+01       4.45674e+00       6.68810e-04       5.08886e+02
  5.800      2.64449e+02       1.67571e+01       4.56282e+00       6.61928e-04       5.02383e+02
  5.900      2.63767e+02       1.68951e+01       4.64322e+00       6.55137e-04       4.95947e+02
  6.000      2.63073e+02       1.69917e+01       4.69533e+00       6.48429e-04       4.89577e+02
  6.100      2.62368e+02       1.70476e+01       4.71615e+00       6.41798e-04       4.83271e+02
  6.200      2.61653e+02       1.70635e+01       4.70269e+00       6.35237e-04       4.77028e+02
  6.300      2.60931e+02       1.70405e+01       4.65254e+00       6.28741e-04       4.70848e+02
  6.400      2.60202e+02       1.69815e+01       4.57021e+00       6.22311e-04       4.64729e+02
  6.500      2.59463e+02       1.68905e+01       4.46456e+00       6.15949e-04       4.58672e+02
  6.600      2.58714e+02       1.67717e+01       4.34454e+00       6.09660e-04       4.52678e+02
  6.700      2.57953e+02       1.66294e+01       4.21888e+00       6.03447e-04       4.46747e+02
  6.800      2.57180e+02       1.64705e+01       4.09259e+00       5.97309e-04       4.40877e+02
  6.900      2.56396e+02       1.63040e+01       3.96738e+00       5.91242e-04       4.35068e+02
  7.000      2.55601e+02       1.61391e+01       3.84484e+00       5.85241e-04       4.29318e+02
  7.100      2.54798e+02       1.59849e+01       3.72657e+00       5.79303e-04       4.23626e+02
  7.200      2.53986e+02       1.58484e+01       3.61383e+00       5.73424e-04       4.17991e+02
  7.300      2.53165e+02       1.57322e+01       3.50719e+00       5.67604e-04       4.12412e+02
  7.400      2.52338e+02       1.56385e+01       3.40716e+00       5.61842e-04       4.06891e+02
  7.500      2.51502e+02       1.55695e+01       3.31423e+00       5.56137e-04       4.01426e+02
  7.600      2.50660e+02       1.55272e+01       3.22886e+00       5.50490e-04       3.96018e+02
  7.700      2.49812e+02       1.55121e+01       3.15119e+00       5.44893e-04       3.90667e+02
  7.800      2.48962e+02       1.55243e+01       3.08117e+00       5.39340e-04       3.85370e+02
  7.900      2.48112e+02       1.55637e+01       3.01877e+00       5.33825e-04       3.80128e+02
  8.000      2.47266e+02       1.56301e+01       2.96394e+00       5.28340e-04       3.74938e+02
  8.100      2.46425e+02       1.57223e+01       2.91769e+00       5.22880e-04       3.69801e+02
  8.200      2.45588e+02       1.58337e+01       2.88507e+00       5.17447e-04       3.64716e+02
  8.300      2.44754e+02       1.59566e+01       2.87211e+00       5.12046e-04       3.59683e+02
  8.400      2.43922e+02       1.60834e+01       2.88483e+00       5.06679e-04       3.54704e+02
  8.500      2.43090e+02       1.62063e+01       2.92926e+00       5.01351e-04       3.49777e+02
  8.600      2.42256e+02       1.63187e+01       3.00806e+00       4.96066e-04       3.44903e+02
  8.700      2.41417e+02       1.64171e+01       3.11220e+00       4.90831e-04       3.40081e+02
  8.800      2.40569e+02       1.64989e+01       3.23007e+00       4.85653e-04       3.35311e+02
  8.900      2.39707e+02       1.65615e+01       3.35008e+00       4.80538e-04       3.30590e+02
  9.000      2.38827e+02       1.66023e+01       3.46061e+00       4.75494e-04       3.25920e+02
  9.100      2.37927e+02       1.66203e+01       3.55150e+00       4.70526e-04       3.21299e+02
  9.200      2.37008e+02       1.66276e+01       3.62291e+00       4.65626e-04       3.16725e+02
  9.300      2.36079e+02       1.66418e+01       3.67965e+00       4.60781e-04       3.12200e+02
  9.400      2.35144e+02       1.66806e+01       3.72655e+00       4.55978e-04       3.07722e+02
  9.500      2.34210e+02       1.67618e+01       3.76843e+00       4.51205e-04       3.03291e+02
  9.600      2.33282e+02       1.69031e+01       3.81011e+00       4.46449e-04       2.98907e+02
  9.700      2.32367e+02       1.71165e+01       3.85601e+00       4.41703e-04       2.94568e+02
  9.800      2.31464e+02       1.74035e+01       3.90972e+00       4.36965e-04       2.90276e+02
  9.900      2.30574e+02       1.77644e+01       3.97475e+00       4.32234e-04       2.86030e+02
 10.000      2.29699e+02       1.81992e+01       4.05459e+00       4.27510e-04       2.81831e+02
 10.100      2.28840e+02       1.87083e+01       4.15277e+00       4.22792e-04       2.77677e+02
 10.200      2.27996e+02       1.92916e+01       4.27272e+00       4.18080e-04       2.73570e+02
 10.300      2.27173e+02       1.99405e+01       4.41464e+00       4.13368e-04       2.69510e+02
 10.400      2.26375e+02       2.06330e+01       4.57390e+00       4.08646e-04       2.65496e+02
 10.500      2.25609e+02       2.13463e+01       4.74549e+00       4.03905e-04       2.61528e+02
 10.600      2.24883e+02       2.20577e+01       4.92439e+00       3.99134e-04       2.57607e+02
 10.700      2.24203e+02       2.27441e+01       5.10559e+00       3.94325e-04       2.53733e+02
 10.800      2.23575e+02       2.33828e+01       5.28407e+00       3.89466e-04       2.49905e+02
 10.900      2.23006e+02       2.39569e+01       5.45621e+00       3.84553e-04       2.46124e+02
 11.000      2.22502e+02       2.44709e+01       5.62362e+00       3.79578e-04       2.42392e+02
 11.100      2.22068e+02       2.49349e+01       5.78911e+00       3.74541e-04       2.38708e+02
 11.200      2.21709e+02       2.53585e+01       5.95548e+00       3.69438e-04       2.35075e+02
 11.300      2.21431e+02       2.57517e+01       6.12555e+00       3.64267e-04       2.31494e+02
 11.400      2.21239e+02       2.61242e+01       6.30213e+00       3.59025e-04       2.27965e+02
 11.500      2.21138e+02       2.64859e+01       6.48803e+00       3.53713e-04       2.24490e+02
 11.600      2.21126e+02       2.68438e+01       6.68490e+00       3.48340e-04       2.21067e+02
 11.700      2.21181e+02       2.71975e+01       6.89145e+00       3.42946e-04       2.17698e+02
 11.800      2.21278e+02       2.75458e+01       7.10590e+00       3.37571e-04       2.14381e+02
 11.900      2.21392e+02       2.78871e+01       7.32649e+00       3.32256e-04       2.11114e+02
 12.000      2.21498e+02       2.82200e+01       7.55143e+00       3.27036e-04       2.07897e+02
 12.100      2.21572e+02       2.85432e+01       7.77895e+00       3.21945e-04       2.04728e+02
 12.200      2.21587e+02       2.88551e+01       8.00729e+00       3.17016e-04       2.01608e+02
 12.300      2.21520e+02       2.91545e+01       8.23476e+00       3.12277e-04       1.98534e+02
 12.400      2.21365e+02       2.94412e+01       8.46209e+00       3.07731e-04       1.95507e+02
 12.500      2.21134e+02       2.97167e+01       8.69258e+00       3.03352e-04       1.92523e+02
 12.600      2.20841e+02       2.99823e+01       8.92965e+00       2.99115e-04       1.89583e+02
 12.700      2.20500e+02       3.02395e+01       9.17669e+00       2.94998e-04       1.86684e+02
 12.800      2.20124e+02       3.04897e+01       9.43713e+00       2.90977e-04       1.83827e+02
 12.900      2.19728e+02       3.07343e+01       9.71437e+00       2.87032e-04       1.81008e+02
 13.000      2.19325e+02       3.09748e+01       1.00118e+01       2.83143e-04       1.78228e+02
 13.100      2.18928e+02       3.12126e+01       1.03329e+01       2.79289e-04       1.75484e+02
 13.200      2.18551e+02       3.14480e+01       1.06797e+01       2.75455e-04       1.72777e+02
 13.300      2.18195e+02       3.16748e+01       1.10450e+01       2.71640e-04       1.70106e+02
 13.400      2.17857e+02       3.18837e+01       1.14178e+01       2.67848e-04       1.67472e+02
 13.500      2.17534e+02       3.20653e+01       1.17869e+01       2.64083e-04       1.64873e+02
 13.600      2.17225e+02       3.22105e+01       1.21413e+01       2.60351e-04       1.62312e+02
 13.700      2.16925e+02       3.23098e+01       1.24699e+01       2.56655e-04       1.59787e+02
 13.800      2.16633e+02       3.23541e+01       1.27616e+01       2.52999e-04       1.57299e+02
 13.900      2.16346e+02       3.23341e+01       1.30053e+01       2.49386e-04       1.54847e+02
 14.000      2.16062e+02       3.22405e+01       1.31899e+01       2.45821e-04       1.52433e+02
 14.100      2.15777e+02       3.20639e+01       1.33044e+01       2.42307e-04       1.50055e+02
 14.200      2.15489e+02       3.17983e+01       1.33405e+01       2.38845e-04       1.47715e+02
 14.300      2.15201e+02       3.14506e+01       1.33026e+01       2.35432e-04       1.45409e+02
 14.400      2.14914e+02       3.10314e+01       1.31981e+01       2.32064e-04       1.43137e+02
 14.500      2.14630e+02       3.05511e+01       1.30348e+01       2.28736e-04       1.40898e+02
 14.600      2.14351e+02       3.00204e+01       1.28201e+01       2.25444e-04       1.38690e+02
 14.700      2.14081e+02       2.94498e+01       1.25618e+01       2.22185e-04       1.36513e+02
 14.800      2.13819e+02       2.88498e+01       1.22673e+01       2.18954e-04       1.34364e+02
 14.900      2.13570e+02       2.82309e+01       1.19442e+01       2.15748e-04       1.32242e+02
 15.000      2.13335e+02       2.76038e+01       1.16003e+01       2.12565e-04       1.30148e+02
 15.100      2.13116e+02       2.69789e+01       1.12430e+01       2.09400e-04       1.28078e+02
 15.200      2.12916e+02       2.63668e+01       1.08799e+01       2.06251e-04       1.26034e+02
 15.300      2.12736e+02       2.57778e+01       1.05185e+01       2.03116e-04       1.24013e+02
 15.400      2.12577e+02       2.52156e+01       1.01629e+01       1.99995e-04       1.22016e+02
 15.500      2.12438e+02       2.46775e+01       9.81361e+00       1.96892e-04       1.20045e+02
 15.600      2.12318e+02       2.41604e+01       9.47106e+00       1.93812e-04       1.18100e+02
 15.700      2.12216e+02       2.36611e+01       9.13568e+00       1.90759e-04       1.16184e+02
 15.800      2.12130e+02       2.31765e+01       8.80785e+00       1.87736e-04       1.14296e+02
 15.900      2.12059e+02       2.27035e+01       8.48802e+00       1.84748e-04       1.12439e+02
 16.000      2.12003e+02       2.22390e+01       8.17658e+00       1.81796e-04       1.10614e+02
 16.100      2.11960e+02       2.17798e+01       7.87396e+00       1.78885e-04       1.08820e+02
 16.200      2.11929e+02       2.13228e+01       7.58056e+00       1.76017e-04       1.07060e+02
 16.300      2.11909e+02       2.08650e+01       7.29681e+00       1.73194e-04       1.05333e+02
 16.400      2.11899e+02       2.04032e+01       7.02311e+00       1.70420e-04       1.03641e+02
 16.500      2.11898e+02       1.99343e+01       6.75988e+00       1.67696e-04       1.01984e+02
 16.600      2.11904e+02       1.94551e+01       6.50754e+00       1.65025e-04       1.00362e+02
 16.700      2.11916e+02       1.89629e+01       6.26643e+00       1.62407e-04       9.87761e+01
 16.800      2.11935e+02       1.84575e+01       6.03644e+00       1.59843e-04       9.72249e+01
 16.900      2.11959e+02       1.79400e+01       5.81720e+00       1.57329e-04       9.57068e+01
 17.000      2.11990e+02       1.74116e+01       5.60836e+00       1.54862e-04       9.42200e+01
 17.100      2.12027e+02       1.68733e+01       5.40956e+00       1.52442e-04       9.27632e+01
 17.200      2.12069e+02       1.63262e+01       5.22044e+00       1.50064e-04       9.13349e+01
 17.300      2.12118e+02       1.57715e+01       5.04065e+00       1.47728e-04       8.99336e+01
 17.400      2.12173e+02       1.52103e+01       4.86982e+00       1.45431e-04       8.85580e+01
 17.500      2.12233e+02       1.46437e+01       4.70759e+00       1.43171e-04       8.72069e+01
 17.600      2.12299e+02       1.40728e+01       4.55362e+00       1.40947e-04       8.58791e+01
 17.700      2.12371e+02       1.34987e+01       4.40753e+00       1.38757e-04       8.45732e+01
 17.800      2.12449e+02       1.29226e+01       4.26898e+00       1.36599e-04       8.32884e+01
 17.900      2.12532e+02       1.23455e+01       4.13759e+00       1.34472e-04       8.20235e+01
 18.000      2.12622e+02       1.17686e+01       4.01303e+00       1.32373e-04       8.07774e+01
 18.100      2.12717e+02       1.11930e+01       3.89491e+00       1.30303e-04       7.95493e+01
 18.200      2.12817e+02       1.06197e+01       3.78290e+00       1.28258e-04       7.83382e+01
 18.300      2.12923e+02       1.00500e+01       3.67663e+00       1.26239e-04       7.71433e+01
 18.400      2.13035e+02       9.48484e+00       3.57574e+00       1.24243e-04       7.59637e+01
 18.500      2.13152e+02       8.92544e+00       3.47987e+00       1.22271e-04       7.47986e+01
 18.600      2.13275e+02       8.37288e+00       3.38867e+00       1.20319e-04       7.36473e+01
 18.700      2.13403e+02       7.82829e+00       3.30177e+00       1.18388e-04       7.25090e+01
 18.800      2.13537e+02       7.29278e+00       3.21882e+00       1.16477e-04       7.13832e+01
 18.900      2.13676e+02       6.76744e+00       3.13946e+00       1.14585e-04       7.02691e+01
 19.000      2.13820e+02       6.25332e+00       3.06334e+00       1.12710e-04       6.91663e+01
 19.100      2.13970e+02       5.75084e+00       2.99019e+00       1.10854e-04       6.80749e+01
 19.200      2.14123e+02       5.26007e+00       2.91976e+00       1.09018e-04       6.69956e+01
 19.300      2.14281e+02       4.78111e+00       2.85182e+00       1.07203e-04       6.59287e+01
 19.400      2.14443e+02       4.31402e+00       2.78613e+00       1.05410e-04       6.48748e+01
 19.500      2.14608e+02       3.85889e+00       2.72244e+00       1.03640e-04       6.38343e+01
 19.600      2.14775e+02       3.41581e+00       2.66054e+00       1.01894e-04       6.28077e+01
 19.700      2.14945e+02       2.98485e+00       2.60016e+00       1.00172e-04       6.17953e+01
 19.800      2.15116e+02       2.56611e+00       2.54108e+00       9.84759e-05       6.07973e+01
 19.900      2.15289e+02       2.15965e+00       2.48306e+00       9.68059e-05       5.98142e+01
 20.000      2.15462e+02       1.76557e+00       2.42586e+00       9.51627e-05       5.88463e+01
 20.100      2.15635e+02       1.38394e+00       2.36924e+00       9.35467e-05       5.78936e+01
 20.200      2.15809e+02       1.01486e+00       2.31297e+00       9.19586e-05       5.69566e+01
 20.300      2.15982e+02       6.58397e-01       2.25680e+00       9.03987e-05       5.60353e+01
