# Data Source: NASA GEOS5 Near-Real-Time
# Model Time = 2010-09-02 00:00:00
# Location = [  39.7393, -104.9900 ]
# Fields = [ Z(km), T(K), U(m/s), V(m/s), R(g/cm3), P(mbar) ]
# Ground Height = 1.589
  0.000      3.10622e+02       4.86563e-01       1.38488e+00       1.12964e-03       1.00706e+03
  0.100      3.09945e+02       5.31860e-01       1.35386e+00       1.11888e-03       9.95290e+02
  0.200      3.09276e+02       5.71216e-01       1.33081e+00       1.10820e-03       9.83666e+02
  0.300      3.08630e+02       5.89932e-01       1.33539e+00       1.09757e-03       9.72190e+02
  0.400      3.08012e+02       5.84875e-01       1.36627e+00       1.08696e-03       9.60866e+02
  0.500      3.07394e+02       5.75609e-01       1.38089e+00       1.07648e-03       9.49691e+02
  0.600      3.06754e+02       5.76867e-01       1.35147e+00       1.06619e-03       9.38661e+02
  0.700      3.06096e+02       5.75878e-01       1.32221e+00       1.05609e-03       9.27774e+02
  0.800      3.05429e+02       5.57904e-01       1.34552e+00       1.04614e-03       9.17029e+02
  0.900      3.04760e+02       5.47013e-01       1.39915e+00       1.03631e-03       9.06424e+02
  1.000      3.04099e+02       5.86479e-01       1.42252e+00       1.02657e-03       8.95954e+02
  1.100      3.03451e+02       6.71272e-01       1.38932e+00       1.01689e-03       8.85618e+02
  1.200      3.02815e+02       7.31359e-01       1.31975e+00       1.00729e-03       8.75417e+02
  1.300      3.02191e+02       7.11793e-01       1.24411e+00       9.97762e-04       8.65348e+02
  1.400      3.01580e+02       6.46531e-01       1.22375e+00       9.88304e-04       8.55410e+02
  1.500      3.00981e+02       5.93856e-01       1.32624e+00       9.78915e-04       8.45602e+02
  1.600      3.00378e+02       5.88279e-01       1.54263e+00       9.69649e-04       8.35919e+02
  1.700      2.99730e+02       6.37220e-01       1.77679e+00       9.60625e-04       8.26353e+02
  1.800      2.99007e+02       7.41285e-01       1.94101e+00       9.51932e-04       8.16900e+02
  1.900      2.98224e+02       8.68173e-01       2.02866e+00       9.43505e-04       8.07549e+02
  2.000      2.97417e+02       9.73156e-01       2.06395e+00       9.35218e-04       7.98291e+02
  2.100      2.96611e+02       1.03684e+00       2.06602e+00       9.26989e-04       7.89121e+02
  2.200      2.95804e+02       1.09881e+00       2.04215e+00       9.18820e-04       7.80039e+02
  2.300      2.94992e+02       1.20591e+00       1.99779e+00       9.10728e-04       7.71046e+02
  2.400      2.94172e+02       1.37120e+00       1.93514e+00       9.02719e-04       7.62142e+02
  2.500      2.93346e+02       1.56834e+00       1.85255e+00       8.94788e-04       7.53324e+02
  2.600      2.92513e+02       1.77177e+00       1.74844e+00       8.86932e-04       7.44589e+02
  2.700      2.91668e+02       1.99744e+00       1.62496e+00       8.79164e-04       7.35937e+02
  2.800      2.90802e+02       2.29157e+00       1.48701e+00       8.71513e-04       7.27366e+02
  2.900      2.89905e+02       2.69407e+00       1.33926e+00       8.64003e-04       7.18874e+02
  3.000      2.88978e+02       3.17768e+00       1.18362e+00       8.56629e-04       7.10460e+02
  3.100      2.88027e+02       3.67790e+00       1.02049e+00       8.49369e-04       7.02120e+02
  3.200      2.87058e+02       4.13640e+00       8.51396e-01       8.42202e-04       6.93853e+02
  3.300      2.86079e+02       4.55349e+00       6.88090e-01       8.35102e-04       6.85657e+02
  3.400      2.85098e+02       4.96009e+00       5.47648e-01       8.28044e-04       6.77532e+02
  3.500      2.84125e+02       5.38456e+00       4.45919e-01       8.21002e-04       6.69477e+02
  3.600      2.83159e+02       5.82453e+00       3.84928e-01       8.13977e-04       6.61493e+02
  3.700      2.82195e+02       6.25877e+00       3.58246e-01       8.06985e-04       6.53577e+02
  3.800      2.81228e+02       6.66693e+00       3.59442e-01       8.00037e-04       6.45729e+02
  3.900      2.80258e+02       7.04967e+00       3.84406e-01       7.93130e-04       6.37947e+02
  4.000      2.79296e+02       7.42632e+00       4.31083e-01       7.86240e-04       6.30233e+02
  4.100      2.78348e+02       7.81670e+00       4.97509e-01       7.79345e-04       6.22586e+02
  4.200      2.77418e+02       8.22928e+00       5.83002e-01       7.72437e-04       6.15007e+02
  4.300      2.76502e+02       8.65420e+00       6.88955e-01       7.65532e-04       6.07495e+02
  4.400      2.75594e+02       9.07990e+00       8.16951e-01       7.58644e-04       6.00052e+02
  4.500      2.74689e+02       9.49786e+00       9.65444e-01       7.51788e-04       5.92678e+02
  4.600      2.73786e+02       9.91191e+00       1.12009e+00       7.44970e-04       5.85372e+02
  4.700      2.72882e+02       1.03291e+01       1.26329e+00       7.38193e-04       5.78131e+02
  4.800      2.71975e+02       1.07557e+01       1.37750e+00       7.31459e-04       5.70955e+02
  4.900      2.71071e+02       1.11885e+01       1.44624e+00       7.24757e-04       5.63843e+02
  5.000      2.70180e+02       1.16156e+01       1.45398e+00       7.18062e-04       5.56796e+02
  5.100      2.69310e+02       1.20250e+01       1.38517e+00       7.11349e-04       5.49815e+02
  5.200      2.68469e+02       1.24112e+01       1.23229e+00       7.04603e-04       5.42901e+02
  5.300      2.67653e+02       1.27926e+01       1.01729e+00       6.97837e-04       5.36054e+02
  5.400      2.66854e+02       1.31930e+01       7.68941e-01       6.91074e-04       5.29273e+02
  5.500      2.66064e+02       1.36359e+01       5.15565e-01       6.84332e-04       5.22558e+02
  5.600      2.65281e+02       1.41263e+01       2.63369e-01       6.77617e-04       5.15909e+02
  5.700      2.64512e+02       1.46430e+01      -1.29386e-02       6.70915e-04       5.09326e+02
  5.800      2.63763e+02       1.51625e+01      -3.41066e-01       6.64209e-04       5.02807e+02
  5.900      2.63040e+02       1.56622e+01      -7.47428e-01       6.57486e-04       4.96352e+02
  6.000      2.62343e+02       1.61336e+01      -1.23635e+00       6.50744e-04       4.89961e+02
  6.100      2.61669e+02       1.65798e+01      -1.79358e+00       6.43996e-04       4.83635e+02
  6.200      2.61014e+02       1.70041e+01      -2.40428e+00       6.37255e-04       4.77375e+02
  6.300      2.60375e+02       1.74101e+01      -3.05359e+00       6.30532e-04       4.71181e+02
  6.400      2.59745e+02       1.78013e+01      -3.72594e+00       6.23840e-04       4.65054e+02
  6.500      2.59120e+02       1.81815e+01      -4.40529e+00       6.17195e-04       4.58992e+02
  6.600      2.58492e+02       1.85545e+01      -5.07558e+00       6.10610e-04       4.52995e+02
  6.700      2.57856e+02       1.89243e+01      -5.72110e+00       6.04100e-04       4.47062e+02
  6.800      2.57208e+02       1.92975e+01      -6.33388e+00       5.97670e-04       4.41192e+02
  6.900      2.56547e+02       1.96841e+01      -6.91379e+00       5.91322e-04       4.35384e+02
  7.000      2.55871e+02       2.00940e+01      -7.46107e+00       5.85058e-04       4.29637e+02
  7.100      2.55180e+02       2.05371e+01      -7.97592e+00       5.78878e-04       4.23951e+02
  7.200      2.54474e+02       2.10192e+01      -8.45692e+00       5.72779e-04       4.18323e+02
  7.300      2.53754e+02       2.15368e+01      -8.89877e+00       5.66756e-04       4.12755e+02
  7.400      2.53026e+02       2.20849e+01      -9.29565e+00       5.60801e-04       4.07244e+02
  7.500      2.52290e+02       2.26587e+01      -9.64173e+00       5.54905e-04       4.01792e+02
  7.600      2.51552e+02       2.32528e+01      -9.93160e+00       5.49063e-04       3.96398e+02
  7.700      2.50811e+02       2.38577e+01      -1.01649e+01       5.43271e-04       3.91061e+02
  7.800      2.50067e+02       2.44615e+01      -1.03445e+01       5.37529e-04       3.85780e+02
  7.900      2.49320e+02       2.50518e+01      -1.04733e+01       5.31838e-04       3.80556e+02
  8.000      2.48570e+02       2.56166e+01      -1.05543e+01       5.26198e-04       3.75387e+02
  8.100      2.47816e+02       2.61435e+01      -1.05921e+01       5.20608e-04       3.70273e+02
  8.200      2.47056e+02       2.66197e+01      -1.06014e+01       5.15074e-04       3.65213e+02
  8.300      2.46286e+02       2.70318e+01      -1.05996e+01       5.09601e-04       3.60207e+02
  8.400      2.45504e+02       2.73667e+01      -1.06042e+01       5.04194e-04       3.55253e+02
  8.500      2.44707e+02       2.76112e+01      -1.06327e+01       4.98857e-04       3.50352e+02
  8.600      2.43892e+02       2.77557e+01      -1.07001e+01       4.93595e-04       3.45502e+02
  8.700      2.43063e+02       2.78076e+01      -1.08101e+01       4.88400e-04       3.40703e+02
  8.800      2.42222e+02       2.77799e+01      -1.09625e+01       4.83265e-04       3.35955e+02
  8.900      2.41374e+02       2.76855e+01      -1.11571e+01       4.78181e-04       3.31256e+02
  9.000      2.40522e+02       2.75374e+01      -1.13939e+01       4.73140e-04       3.26607e+02
  9.100      2.39670e+02       2.73486e+01      -1.16726e+01       4.68135e-04       3.22008e+02
  9.200      2.38820e+02       2.71354e+01      -1.19898e+01       4.63163e-04       3.17457e+02
  9.300      2.37971e+02       2.69160e+01      -1.23403e+01       4.58223e-04       3.12955e+02
  9.400      2.37124e+02       2.67084e+01      -1.27188e+01       4.53315e-04       3.08502e+02
  9.500      2.36279e+02       2.65309e+01      -1.31199e+01       4.48440e-04       3.04096e+02
  9.600      2.35436e+02       2.64017e+01      -1.35384e+01       4.43596e-04       2.99738e+02
  9.700      2.34596e+02       2.63355e+01      -1.39681e+01       4.38783e-04       2.95428e+02
  9.800      2.33762e+02       2.63355e+01      -1.44002e+01       4.33993e-04       2.91165e+02
  9.900      2.32940e+02       2.64024e+01      -1.48252e+01       4.29219e-04       2.86949e+02
 10.000      2.32133e+02       2.65371e+01      -1.52337e+01       4.24454e-04       2.82781e+02
 10.100      2.31346e+02       2.67403e+01      -1.56163e+01       4.19690e-04       2.78659e+02
 10.200      2.30583e+02       2.70128e+01      -1.59634e+01       4.14922e-04       2.74584e+02
 10.300      2.29848e+02       2.73527e+01      -1.62748e+01       4.10144e-04       2.70556e+02
 10.400      2.29138e+02       2.77501e+01      -1.65770e+01       4.05359e-04       2.66575e+02
 10.500      2.28453e+02       2.81939e+01      -1.69014e+01       4.00573e-04       2.62640e+02
 10.600      2.27792e+02       2.86727e+01      -1.72794e+01       3.95788e-04       2.58752e+02
 10.700      2.27154e+02       2.91754e+01      -1.77425e+01       3.91008e-04       2.54910e+02
 10.800      2.26535e+02       2.96907e+01      -1.83222e+01       3.86237e-04       2.51115e+02
 10.900      2.25937e+02       3.02071e+01      -1.90438e+01       3.81479e-04       2.47365e+02
 11.000      2.25358e+02       3.07108e+01      -1.98717e+01       3.76734e-04       2.43663e+02
 11.100      2.24799e+02       3.11869e+01      -2.07350e+01       3.72003e-04       2.40006e+02
 11.200      2.24262e+02       3.16201e+01      -2.15619e+01       3.67284e-04       2.36396e+02
 11.300      2.23748e+02       3.19955e+01      -2.22808e+01       3.62580e-04       2.32833e+02
 11.400      2.23257e+02       3.22978e+01      -2.28202e+01       3.57888e-04       2.29315e+02
 11.500      2.22790e+02       3.25121e+01      -2.31085e+01       3.53209e-04       2.25844e+02
 11.600      2.22348e+02       3.26256e+01      -2.30812e+01       3.48544e-04       2.22419e+02
 11.700      2.21922e+02       3.26460e+01      -2.27354e+01       3.43907e-04       2.19040e+02
 11.800      2.21501e+02       3.25914e+01      -2.20994e+01       3.39316e-04       2.15706e+02
 11.900      2.21073e+02       3.24801e+01      -2.12019e+01       3.34788e-04       2.12416e+02
 12.000      2.20625e+02       3.23300e+01      -2.00713e+01       3.30339e-04       2.09169e+02
 12.100      2.20146e+02       3.21595e+01      -1.87362e+01       3.25987e-04       2.05964e+02
 12.200      2.19624e+02       3.19866e+01      -1.72252e+01       3.21745e-04       2.02802e+02
 12.300      2.19046e+02       3.18296e+01      -1.55669e+01       3.17629e-04       1.99681e+02
 12.400      2.18408e+02       3.17012e+01      -1.37946e+01       3.13642e-04       1.96601e+02
 12.500      2.17726e+02       3.15986e+01      -1.19556e+01       3.09760e-04       1.93560e+02
 12.600      2.17017e+02       3.15158e+01      -1.01000e+01       3.05952e-04       1.90559e+02
 12.700      2.16303e+02       3.14471e+01      -8.27759e+00       3.02190e-04       1.87596e+02
 12.800      2.15601e+02       3.13867e+01      -6.53842e+00       2.98446e-04       1.84670e+02
 12.900      2.14931e+02       3.13287e+01      -4.93241e+00       2.94693e-04       1.81782e+02
 13.000      2.14311e+02       3.12672e+01      -3.50950e+00       2.90907e-04       1.78929e+02
 13.100      2.13762e+02       3.11965e+01      -2.31965e+00       2.87062e-04       1.76112e+02
 13.200      2.13302e+02       3.11109e+01      -1.40952e+00       2.83137e-04       1.73330e+02
 13.300      2.12933e+02       3.10062e+01      -7.76976e-01       2.79134e-04       1.70584e+02
 13.400      2.12649e+02       3.08798e+01      -3.82512e-01       2.75068e-04       1.67874e+02
 13.500      2.12440e+02       3.07288e+01      -1.85653e-01       2.70957e-04       1.65203e+02
 13.600      2.12300e+02       3.05505e+01      -1.45938e-01       2.66817e-04       1.62572e+02
 13.700      2.12221e+02       3.03422e+01      -2.22899e-01       2.62664e-04       1.59982e+02
 13.800      2.12193e+02       3.01010e+01      -3.76068e-01       2.58513e-04       1.57433e+02
 13.900      2.12210e+02       2.98243e+01      -5.64978e-01       2.54379e-04       1.54927e+02
 14.000      2.12263e+02       2.95093e+01      -7.49165e-01       2.50274e-04       1.52465e+02
 14.100      2.12344e+02       2.91533e+01      -8.88160e-01       2.46211e-04       1.50047e+02
 14.200      2.12446e+02       2.87548e+01      -9.49266e-01       2.42200e-04       1.47674e+02
 14.300      2.12563e+02       2.83185e+01      -9.32764e-01       2.38247e-04       1.45344e+02
 14.400      2.12690e+02       2.78503e+01      -8.47681e-01       2.34354e-04       1.43054e+02
 14.500      2.12822e+02       2.73563e+01      -7.03043e-01       2.30523e-04       1.40803e+02
 14.600      2.12955e+02       2.68427e+01      -5.07876e-01       2.26756e-04       1.38589e+02
 14.700      2.13083e+02       2.63154e+01      -2.71210e-01       2.23055e-04       1.36409e+02
 14.800      2.13201e+02       2.57806e+01      -2.06700e-03       2.19423e-04       1.34262e+02
 14.900      2.13305e+02       2.52443e+01       2.90521e-01       2.15860e-04       1.32146e+02
 15.000      2.13388e+02       2.47127e+01       5.97532e-01       2.12369e-04       1.30060e+02
 15.100      2.13447e+02       2.41917e+01       9.09937e-01       2.08950e-04       1.28001e+02
 15.200      2.13477e+02       2.36874e+01       1.21871e+00       2.05605e-04       1.25970e+02
 15.300      2.13471e+02       2.32058e+01       1.51503e+00       2.02334e-04       1.23963e+02
 15.400      2.13432e+02       2.27484e+01       1.79458e+00       1.99137e-04       1.21981e+02
 15.500      2.13361e+02       2.23129e+01       2.05732e+00       1.96009e-04       1.20025e+02
 15.600      2.13265e+02       2.18967e+01       2.30337e+00       1.92947e-04       1.18097e+02
 15.700      2.13147e+02       2.14973e+01       2.53285e+00       1.89947e-04       1.16197e+02
 15.800      2.13012e+02       2.11121e+01       2.74588e+00       1.87007e-04       1.14326e+02
 15.900      2.12864e+02       2.07385e+01       2.94261e+00       1.84123e-04       1.12485e+02
 16.000      2.12708e+02       2.03740e+01       3.12314e+00       1.81293e-04       1.10674e+02
 16.100      2.12548e+02       2.00161e+01       3.28761e+00       1.78513e-04       1.08895e+02
 16.200      2.12389e+02       1.96621e+01       3.43614e+00       1.75781e-04       1.07148e+02
 16.300      2.12234e+02       1.93096e+01       3.56885e+00       1.73095e-04       1.05434e+02
 16.400      2.12089e+02       1.89560e+01       3.68588e+00       1.70451e-04       1.03752e+02
 16.500      2.11957e+02       1.85987e+01       3.78734e+00       1.67847e-04       1.02104e+02
 16.600      2.11844e+02       1.82352e+01       3.87336e+00       1.65282e-04       1.00490e+02
 16.700      2.11753e+02       1.78631e+01       3.94409e+00       1.62753e-04       9.89101e+01
 16.800      2.11685e+02       1.74818e+01       3.99991e+00       1.60259e-04       9.73631e+01
 16.900      2.11640e+02       1.70918e+01       4.04134e+00       1.57798e-04       9.58477e+01
 17.000      2.11616e+02       1.66937e+01       4.06889e+00       1.55371e-04       9.43624e+01
 17.100      2.11612e+02       1.62879e+01       4.08310e+00       1.52976e-04       9.29060e+01
 17.200      2.11627e+02       1.58750e+01       4.08447e+00       1.50612e-04       9.14770e+01
 17.300      2.11660e+02       1.54554e+01       4.07353e+00       1.48279e-04       9.00742e+01
 17.400      2.11711e+02       1.50298e+01       4.05080e+00       1.45976e-04       8.86963e+01
 17.500      2.11777e+02       1.45985e+01       4.01681e+00       1.43702e-04       8.73423e+01
 17.600      2.11859e+02       1.41623e+01       3.97206e+00       1.41457e-04       8.60110e+01
 17.700      2.11955e+02       1.37214e+01       3.91709e+00       1.39240e-04       8.47013e+01
 17.800      2.12064e+02       1.32766e+01       3.85242e+00       1.37051e-04       8.34122e+01
 17.900      2.12185e+02       1.28282e+01       3.77856e+00       1.34888e-04       8.21428e+01
 18.000      2.12317e+02       1.23769e+01       3.69603e+00       1.32752e-04       8.08922e+01
 18.100      2.12459e+02       1.19230e+01       3.60536e+00       1.30641e-04       7.96594e+01
 18.200      2.12610e+02       1.14673e+01       3.50707e+00       1.28556e-04       7.84437e+01
 18.300      2.12769e+02       1.10101e+01       3.40168e+00       1.26495e-04       7.72441e+01
 18.400      2.12935e+02       1.05519e+01       3.28971e+00       1.24459e-04       7.60601e+01
 18.500      2.13107e+02       1.00934e+01       3.17167e+00       1.22447e-04       7.48907e+01
 18.600      2.13284e+02       9.63496e+00       3.04810e+00       1.20458e-04       7.37354e+01
 18.700      2.13465e+02       9.17717e+00       2.91951e+00       1.18492e-04       7.25936e+01
 18.800      2.13649e+02       8.72054e+00       2.78642e+00       1.16549e-04       7.14645e+01
 18.900      2.13834e+02       8.26558e+00       2.64936e+00       1.14628e-04       7.03476e+01
 19.000      2.14021e+02       7.81280e+00       2.50884e+00       1.12729e-04       6.92424e+01
 19.100      2.14208e+02       7.36276e+00       2.36544e+00       1.10852e-04       6.81490e+01
 19.200      2.14395e+02       6.91603e+00       2.21974e+00       1.08998e-04       6.70680e+01
 19.300      2.14582e+02       6.47317e+00       2.07234e+00       1.07169e-04       6.59998e+01
 19.400      2.14768e+02       6.03475e+00       1.92383e+00       1.05364e-04       6.49448e+01
 19.500      2.14955e+02       5.60133e+00       1.77480e+00       1.03585e-04       6.39036e+01
 19.600      2.15140e+02       5.17347e+00       1.62584e+00       1.01832e-04       6.28763e+01
 19.700      2.15325e+02       4.75176e+00       1.47754e+00       1.00106e-04       6.18635e+01
 19.800      2.15508e+02       4.33675e+00       1.33050e+00       9.84067e-05       6.08653e+01
 19.900      2.15690e+02       3.92901e+00       1.18531e+00       9.67353e-05       5.98821e+01
 20.000      2.15870e+02       3.52910e+00       1.04255e+00       9.50921e-05       5.89141e+01
 20.100      2.16049e+02       3.13760e+00       9.02820e-01       9.34773e-05       5.79616e+01
 20.200      2.16225e+02       2.75506e+00       7.66713e-01       9.18913e-05       5.70247e+01
 20.300      2.16400e+02       2.38206e+00       6.34821e-01       9.03343e-05       5.61036e+01
