# Data Source: NASA GEOS5 Near-Real-Time
# Model Time = 2010-09-01 18:00:00
# Location = [  39.7393, -104.9900 ]
# Fields = [ Z(km), T(K), U(m/s), V(m/s), R(g/cm3), P(mbar) ]
# Ground Height = 1.589
  0.000      3.08967e+02       3.71109e+00       6.58686e-01       1.13887e-03       1.00987e+03
  0.100      3.08363e+02       3.74137e+00       6.39838e-01       1.12776e-03       9.98070e+02
  0.200      3.07755e+02       3.76930e+00       6.22755e-01       1.11679e-03       9.86409e+02
  0.300      3.07119e+02       3.78049e+00       6.18178e-01       1.10604e-03       9.74900e+02
  0.400      3.06444e+02       3.76765e+00       6.31328e-01       1.09558e-03       9.63552e+02
  0.500      3.05771e+02       3.75106e+00       6.45908e-01       1.08522e-03       9.52351e+02
  0.600      3.05146e+02       3.75361e+00       6.43749e-01       1.07481e-03       9.41284e+02
  0.700      3.04541e+02       3.76657e+00       6.32504e-01       1.06444e-03       9.30352e+02
  0.800      3.03895e+02       3.76777e+00       6.30976e-01       1.05433e-03       9.19563e+02
  0.900      3.03198e+02       3.76133e+00       6.40045e-01       1.04452e-03       9.08918e+02
  1.000      3.02493e+02       3.77731e+00       6.42884e-01       1.03484e-03       8.98405e+02
  1.100      3.01813e+02       3.82607e+00       6.29916e-01       1.02518e-03       8.88017e+02
  1.200      3.01162e+02       3.86488e+00       6.11973e-01       1.01553e-03       8.77757e+02
  1.300      3.00537e+02       3.85148e+00       6.01847e-01       1.00590e-03       8.67628e+02
  1.400      2.99912e+02       3.82640e+00       6.00673e-01       9.96377e-04       8.57630e+02
  1.500      2.99249e+02       3.87496e+00       6.03232e-01       9.87098e-04       8.47764e+02
  1.600      2.98529e+02       4.04096e+00       6.05780e-01       9.78112e-04       8.38024e+02
  1.700      2.97775e+02       4.28149e+00       6.07736e-01       9.69321e-04       8.28396e+02
  1.800      2.97014e+02       4.54423e+00       6.08325e-01       9.60623e-04       8.18865e+02
  1.900      2.96232e+02       4.79358e+00       5.99385e-01       9.52059e-04       8.09426e+02
  2.000      2.95384e+02       5.00534e+00       5.67698e-01       9.43766e-04       8.00078e+02
  2.100      2.94443e+02       5.16066e+00       5.06854e-01       9.35827e-04       7.90821e+02
  2.200      2.93449e+02       5.26172e+00       4.38760e-01       9.28110e-04       7.81654e+02
  2.300      2.92460e+02       5.31612e+00       3.92459e-01       9.20432e-04       7.72574e+02
  2.400      2.91510e+02       5.33691e+00       3.84314e-01       9.12679e-04       7.63579e+02
  2.500      2.90595e+02       5.34715e+00       4.07252e-01       9.04869e-04       7.54668e+02
  2.600      2.89705e+02       5.37096e+00       4.51748e-01       8.97030e-04       7.45838e+02
  2.700      2.88820e+02       5.43108e+00       5.10349e-01       8.89225e-04       7.37089e+02
  2.800      2.87909e+02       5.54884e+00       5.77829e-01       8.81546e-04       7.28421e+02
  2.900      2.86945e+02       5.74356e+00       6.48768e-01       8.74081e-04       7.19834e+02
  3.000      2.85932e+02       6.00621e+00       7.13241e-01       8.66812e-04       7.11326e+02
  3.100      2.84897e+02       6.30606e+00       7.57876e-01       8.59645e-04       7.02892e+02
  3.200      2.83870e+02       6.61393e+00       7.70227e-01       8.52491e-04       6.94529e+02
  3.300      2.82863e+02       6.92579e+00       7.50112e-01       8.45309e-04       6.86235e+02
  3.400      2.81880e+02       7.25437e+00       7.05513e-01       8.38090e-04       6.78012e+02
  3.500      2.80925e+02       7.61197e+00       6.44228e-01       8.30828e-04       6.69860e+02
  3.600      2.79997e+02       8.00158e+00       5.69667e-01       8.23525e-04       6.61779e+02
  3.700      2.79095e+02       8.41954e+00       4.82137e-01       8.16189e-04       6.53769e+02
  3.800      2.78215e+02       8.86190e+00       3.81920e-01       8.08830e-04       6.45831e+02
  3.900      2.77355e+02       9.32161e+00       2.70151e-01       8.01454e-04       6.37965e+02
  4.000      2.76514e+02       9.78869e+00       1.48768e-01       7.94069e-04       6.30169e+02
  4.100      2.75689e+02       1.02531e+01       1.97376e-02       7.86683e-04       6.22445e+02
  4.200      2.74876e+02       1.07101e+01      -1.14770e-01       7.79307e-04       6.14791e+02
  4.300      2.74070e+02       1.11627e+01      -2.52277e-01       7.71960e-04       6.07209e+02
  4.400      2.73265e+02       1.16147e+01      -3.90277e-01       7.64658e-04       5.99698e+02
  4.500      2.72460e+02       1.20705e+01      -5.25446e-01       7.57405e-04       5.92259e+02
  4.600      2.71675e+02       1.25355e+01      -6.51558e-01       7.50145e-04       5.84894e+02
  4.700      2.70935e+02       1.30154e+01      -7.61746e-01       7.42816e-04       5.77601e+02
  4.800      2.70263e+02       1.35154e+01      -8.49889e-01       7.35357e-04       5.70383e+02
  4.900      2.69660e+02       1.40326e+01      -9.19453e-01       7.27769e-04       5.63238e+02
  5.000      2.69114e+02       1.45587e+01      -9.80529e-01       7.20089e-04       5.56166e+02
  5.100      2.68612e+02       1.50853e+01      -1.04333e+00       7.12356e-04       5.49167e+02
  5.200      2.68140e+02       1.55981e+01      -1.11135e+00       7.04608e-04       5.42239e+02
  5.300      2.67683e+02       1.60667e+01      -1.16922e+00       6.96890e-04       5.35385e+02
  5.400      2.67225e+02       1.64577e+01      -1.19826e+00       6.89244e-04       5.28605e+02
  5.500      2.66750e+02       1.67387e+01      -1.18020e+00       6.81713e-04       5.21901e+02
  5.600      2.66249e+02       1.68990e+01      -1.10678e+00       6.74322e-04       5.15272e+02
  5.700      2.65713e+02       1.69517e+01      -9.80804e-01       6.67084e-04       5.08716e+02
  5.800      2.65137e+02       1.69115e+01      -8.05651e-01       6.60008e-04       5.02230e+02
  5.900      2.64517e+02       1.67931e+01      -5.85452e-01       6.53103e-04       4.95812e+02
  6.000      2.63853e+02       1.66156e+01      -3.33643e-01       6.46359e-04       4.89460e+02
  6.100      2.63152e+02       1.64010e+01      -6.98704e-02       6.39755e-04       4.83174e+02
  6.200      2.62423e+02       1.61712e+01       1.86107e-01       6.33272e-04       4.76951e+02
  6.300      2.61671e+02       1.59472e+01       4.15298e-01       6.26889e-04       4.70791e+02
  6.400      2.60903e+02       1.57393e+01       6.07097e-01       6.20590e-04       4.64693e+02
  6.500      2.60126e+02       1.55512e+01       7.56060e-01       6.14359e-04       4.58657e+02
  6.600      2.59345e+02       1.53866e+01       8.56817e-01       6.08181e-04       4.52682e+02
  6.700      2.58567e+02       1.52493e+01       9.04155e-01       6.02042e-04       4.46767e+02
  6.800      2.57792e+02       1.51463e+01       8.95723e-01       5.95939e-04       4.40913e+02
  6.900      2.57017e+02       1.50873e+01       8.31701e-01       5.89880e-04       4.35118e+02
  7.000      2.56240e+02       1.50821e+01       7.12355e-01       5.83870e-04       4.29383e+02
  7.100      2.55456e+02       1.51406e+01       5.37971e-01       5.77918e-04       4.23705e+02
  7.200      2.54663e+02       1.52663e+01       3.11823e-01       5.72027e-04       4.18085e+02
  7.300      2.53863e+02       1.54499e+01       4.33343e-02       5.66196e-04       4.12522e+02
  7.400      2.53054e+02       1.56804e+01      -2.57311e-01       5.60423e-04       4.07016e+02
  7.500      2.52239e+02       1.59471e+01      -5.79933e-01       5.54707e-04       4.01566e+02
  7.600      2.51416e+02       1.62391e+01      -9.14138e-01       5.49046e-04       3.96172e+02
  7.700      2.50588e+02       1.65455e+01      -1.24743e+00       5.43436e-04       3.90833e+02
  7.800      2.49755e+02       1.68556e+01      -1.56613e+00       5.37877e-04       3.85549e+02
  7.900      2.48919e+02       1.71586e+01      -1.85651e+00       5.32364e-04       3.80319e+02
  8.000      2.48079e+02       1.74439e+01      -2.10486e+00       5.26897e-04       3.75143e+02
  8.100      2.47237e+02       1.77023e+01      -2.30012e+00       5.21472e-04       3.70022e+02
  8.200      2.46392e+02       1.79323e+01      -2.44262e+00       5.16092e-04       3.64953e+02
  8.300      2.45542e+02       1.81342e+01      -2.53584e+00       5.10761e-04       3.59936e+02
  8.400      2.44685e+02       1.83086e+01      -2.58324e+00       5.05479e-04       3.54971e+02
  8.500      2.43819e+02       1.84559e+01      -2.58828e+00       5.00251e-04       3.50056e+02
  8.600      2.42944e+02       1.85780e+01      -2.55469e+00       4.95076e-04       3.45191e+02
  8.700      2.42061e+02       1.86840e+01      -2.48738e+00       4.89952e-04       3.40377e+02
  8.800      2.41174e+02       1.87843e+01      -2.39154e+00       4.84871e-04       3.35613e+02
  8.900      2.40285e+02       1.88897e+01      -2.27237e+00       4.79828e-04       3.30899e+02
  9.000      2.39398e+02       1.90108e+01      -2.13504e+00       4.74818e-04       3.26235e+02
  9.100      2.38516e+02       1.91566e+01      -1.98469e+00       4.69836e-04       3.21621e+02
  9.200      2.37637e+02       1.93219e+01      -1.82565e+00       4.64881e-04       3.17058e+02
  9.300      2.36762e+02       1.94937e+01      -1.66188e+00       4.59956e-04       3.12543e+02
  9.400      2.35887e+02       1.96588e+01      -1.49732e+00       4.55063e-04       3.08076e+02
  9.500      2.35012e+02       1.98043e+01      -1.33590e+00       4.50203e-04       3.03656e+02
  9.600      2.34136e+02       1.99170e+01      -1.18156e+00       4.45380e-04       2.99282e+02
  9.700      2.33257e+02       1.99898e+01      -1.03489e+00       4.40594e-04       2.94954e+02
  9.800      2.32374e+02       2.00302e+01      -8.88259e-01       4.35847e-04       2.90672e+02
  9.900      2.31487e+02       2.00480e+01      -7.32778e-01       4.31140e-04       2.86436e+02
 10.000      2.30596e+02       2.00528e+01      -5.59565e-01       4.26473e-04       2.82245e+02
 10.100      2.29700e+02       2.00543e+01      -3.59738e-01       4.21849e-04       2.78100e+02
 10.200      2.28799e+02       2.00623e+01      -1.24498e-01       4.17267e-04       2.74000e+02
 10.300      2.27897e+02       2.00861e+01       1.44700e-01       4.12720e-04       2.69946e+02
 10.400      2.27010e+02       2.01344e+01       4.26185e-01       4.08181e-04       2.65937e+02
 10.500      2.26152e+02       2.02159e+01       6.95936e-01       4.03623e-04       2.61974e+02
 10.600      2.25341e+02       2.03390e+01       9.29923e-01       3.99019e-04       2.58057e+02
 10.700      2.24592e+02       2.05126e+01       1.10412e+00       3.94344e-04       2.54186e+02
 10.800      2.23921e+02       2.07451e+01       1.19450e+00       3.89573e-04       2.50360e+02
 10.900      2.23341e+02       2.10424e+01       1.18110e+00       3.84688e-04       2.46580e+02
 11.000      2.22848e+02       2.13952e+01       1.06569e+00       3.79702e-04       2.42847e+02
 11.100      2.22435e+02       2.17891e+01       8.57179e-01       3.74635e-04       2.39163e+02
 11.200      2.22094e+02       2.22098e+01       5.64515e-01       3.69508e-04       2.35528e+02
 11.300      2.21815e+02       2.26432e+01       1.96627e-01       3.64341e-04       2.31943e+02
 11.400      2.21591e+02       2.30748e+01      -2.37541e-01       3.59154e-04       2.28410e+02
 11.500      2.21413e+02       2.34904e+01      -7.29062e-01       3.53965e-04       2.24929e+02
 11.600      2.21272e+02       2.38775e+01      -1.26480e+00       3.48792e-04       2.21500e+02
 11.700      2.21157e+02       2.42306e+01      -1.81587e+00       3.43654e-04       2.18124e+02
 11.800      2.21055e+02       2.45458e+01      -2.34968e+00       3.38568e-04       2.14797e+02
 11.900      2.20956e+02       2.48193e+01      -2.83364e+00       3.33553e-04       2.11520e+02
 12.000      2.20846e+02       2.50472e+01      -3.23516e+00       3.28623e-04       2.08290e+02
 12.100      2.20714e+02       2.52255e+01      -3.52164e+00       3.23794e-04       2.05107e+02
 12.200      2.20549e+02       2.53505e+01      -3.66050e+00       3.19080e-04       2.01970e+02
 12.300      2.20337e+02       2.54184e+01      -3.61964e+00       3.14495e-04       1.98877e+02
 12.400      2.20077e+02       2.54319e+01      -3.39137e+00       3.10039e-04       1.95827e+02
 12.500      2.19776e+02       2.54031e+01      -3.00277e+00       3.05696e-04       1.92820e+02
 12.600      2.19444e+02       2.53448e+01      -2.48358e+00       3.01450e-04       1.89854e+02
 12.700      2.19090e+02       2.52696e+01      -1.86355e+00       2.97287e-04       1.86930e+02
 12.800      2.18724e+02       2.51905e+01      -1.17240e+00       2.93191e-04       1.84047e+02
 12.900      2.18355e+02       2.51200e+01      -4.39882e-01       2.89149e-04       1.81203e+02
 13.000      2.17992e+02       2.50710e+01       3.04268e-01       2.85147e-04       1.78399e+02
 13.100      2.17646e+02       2.50562e+01       1.03031e+00       2.81174e-04       1.75634e+02
 13.200      2.17325e+02       2.50866e+01       1.71067e+00       2.77217e-04       1.72906e+02
 13.300      2.17030e+02       2.51579e+01       2.33571e+00       2.73277e-04       1.70217e+02
 13.400      2.16758e+02       2.52584e+01       2.90448e+00       2.69358e-04       1.67566e+02
 13.500      2.16508e+02       2.53765e+01       3.41611e+00       2.65465e-04       1.64954e+02
 13.600      2.16277e+02       2.55006e+01       3.86973e+00       2.61602e-04       1.62381e+02
 13.700      2.16063e+02       2.56189e+01       4.26447e+00       2.57774e-04       1.59846e+02
 13.800      2.15865e+02       2.57197e+01       4.59945e+00       2.53982e-04       1.57350e+02
 13.900      2.15678e+02       2.57915e+01       4.87380e+00       2.50233e-04       1.54893e+02
 14.000      2.15502e+02       2.58224e+01       5.08666e+00       2.46527e-04       1.52475e+02
 14.100      2.15334e+02       2.58009e+01       5.23715e+00       2.42870e-04       1.50096e+02
 14.200      2.15172e+02       2.57178e+01       5.32580e+00       2.39263e-04       1.47755e+02
 14.300      2.15015e+02       2.55750e+01       5.35950e+00       2.35704e-04       1.45452e+02
 14.400      2.14863e+02       2.53779e+01       5.34691e+00       2.32193e-04       1.43184e+02
 14.500      2.14716e+02       2.51316e+01       5.29671e+00       2.28727e-04       1.40949e+02
 14.600      2.14572e+02       2.48414e+01       5.21758e+00       2.25304e-04       1.38747e+02
 14.700      2.14431e+02       2.45125e+01       5.11819e+00       2.21922e-04       1.36575e+02
 14.800      2.14293e+02       2.41501e+01       5.00721e+00       2.18581e-04       1.34432e+02
 14.900      2.14157e+02       2.37595e+01       4.89331e+00       2.15278e-04       1.32316e+02
 15.000      2.14023e+02       2.33458e+01       4.78517e+00       2.12012e-04       1.30227e+02
 15.100      2.13890e+02       2.29143e+01       4.69147e+00       2.08781e-04       1.28164e+02
 15.200      2.13758e+02       2.24703e+01       4.62087e+00       2.05585e-04       1.26124e+02
 15.300      2.13627e+02       2.20188e+01       4.58186e+00       2.02422e-04       1.24107e+02
 15.400      2.13496e+02       2.15631e+01       4.57720e+00       1.99291e-04       1.22112e+02
 15.500      2.13366e+02       2.11036e+01       4.60303e+00       1.96196e-04       1.20143e+02
 15.600      2.13239e+02       2.06411e+01       4.65512e+00       1.93138e-04       1.18199e+02
 15.700      2.13115e+02       2.01759e+01       4.72924e+00       1.90117e-04       1.16283e+02
 15.800      2.12996e+02       1.97088e+01       4.82116e+00       1.87136e-04       1.14396e+02
 15.900      2.12882e+02       1.92402e+01       4.92665e+00       1.84196e-04       1.12539e+02
 16.000      2.12774e+02       1.87707e+01       5.04148e+00       1.81299e-04       1.10712e+02
 16.100      2.12674e+02       1.83008e+01       5.16142e+00       1.78444e-04       1.08918e+02
 16.200      2.12582e+02       1.78312e+01       5.28224e+00       1.75634e-04       1.07156e+02
 16.300      2.12499e+02       1.73622e+01       5.39971e+00       1.72869e-04       1.05428e+02
 16.400      2.12426e+02       1.68945e+01       5.50961e+00       1.70151e-04       1.03735e+02
 16.500      2.12365e+02       1.64286e+01       5.60770e+00       1.67478e-04       1.02076e+02
 16.600      2.12316e+02       1.59651e+01       5.68974e+00       1.64854e-04       1.00453e+02
 16.700      2.12280e+02       1.55044e+01       5.75185e+00       1.62277e-04       9.88664e+01
 16.800      2.12257e+02       1.50470e+01       5.79320e+00       1.59747e-04       9.73146e+01
 16.900      2.12247e+02       1.45929e+01       5.81478e+00       1.57262e-04       9.57962e+01
 17.000      2.12249e+02       1.41423e+01       5.81756e+00       1.54820e-04       9.43094e+01
 17.100      2.12263e+02       1.36955e+01       5.80252e+00       1.52419e-04       9.28529e+01
 17.200      2.12288e+02       1.32524e+01       5.77064e+00       1.50057e-04       9.14249e+01
 17.300      2.12324e+02       1.28134e+01       5.72292e+00       1.47733e-04       9.00242e+01
 17.400      2.12370e+02       1.23786e+01       5.66032e+00       1.45445e-04       8.86493e+01
 17.500      2.12426e+02       1.19481e+01       5.58383e+00       1.43192e-04       8.72990e+01
 17.600      2.12491e+02       1.15221e+01       5.49443e+00       1.40973e-04       8.59720e+01
 17.700      2.12565e+02       1.11008e+01       5.39311e+00       1.38785e-04       8.46671e+01
 17.800      2.12647e+02       1.06844e+01       5.28085e+00       1.36627e-04       8.33833e+01
 17.900      2.12737e+02       1.02730e+01       5.15862e+00       1.34499e-04       8.21193e+01
 18.000      2.12834e+02       9.86673e+00       5.02741e+00       1.32400e-04       8.08743e+01
 18.100      2.12939e+02       9.46583e+00       4.88820e+00       1.30327e-04       7.96471e+01
 18.200      2.13049e+02       9.07044e+00       4.74198e+00       1.28280e-04       7.84370e+01
 18.300      2.13166e+02       8.68073e+00       4.58973e+00       1.26258e-04       7.72429e+01
 18.400      2.13288e+02       8.29686e+00       4.43242e+00       1.24260e-04       7.60641e+01
 18.500      2.13415e+02       7.91900e+00       4.27104e+00       1.22285e-04       7.48997e+01
 18.600      2.13546e+02       7.54732e+00       4.10657e+00       1.20332e-04       7.37490e+01
 18.700      2.13681e+02       7.18197e+00       3.93999e+00       1.18401e-04       7.26112e+01
 18.800      2.13820e+02       6.82314e+00       3.77230e+00       1.16490e-04       7.14858e+01
 18.900      2.13962e+02       6.47098e+00       3.60445e+00       1.14599e-04       7.03719e+01
 19.000      2.14106e+02       6.12564e+00       3.43742e+00       1.12727e-04       6.92691e+01
 19.100      2.14253e+02       5.78701e+00       3.27189e+00       1.10875e-04       6.81776e+01
 19.200      2.14402e+02       5.45485e+00       3.10835e+00       1.09043e-04       6.70978e+01
 19.300      2.14552e+02       5.12890e+00       2.94732e+00       1.07233e-04       6.60303e+01
 19.400      2.14703e+02       4.80888e+00       2.78927e+00       1.05446e-04       6.49756e+01
 19.500      2.14856e+02       4.49455e+00       2.63472e+00       1.03682e-04       6.39342e+01
 19.600      2.15010e+02       4.18564e+00       2.48415e+00       1.01942e-04       6.29063e+01
 19.700      2.15165e+02       3.88189e+00       2.33808e+00       1.00227e-04       6.18925e+01
 19.800      2.15320e+02       3.58305e+00       2.19699e+00       9.85377e-05       6.08931e+01
 19.900      2.15475e+02       3.28885e+00       2.06139e+00       9.68743e-05       5.99084e+01
 20.000      2.15630e+02       2.99904e+00       1.93176e+00       9.52376e-05       5.89386e+01
 20.100      2.15785e+02       2.71334e+00       1.80862e+00       9.36279e-05       5.79841e+01
 20.200      2.15940e+02       2.43151e+00       1.69245e+00       9.20458e-05       5.70451e+01
 20.300      2.16093e+02       2.15329e+00       1.58377e+00       9.04915e-05       5.61217e+01
