# Data Source: NASA GEOS5 Near-Real-Time
# Model Time = 2010-08-02 00:00:00
# Location = [  39.7393, -104.9900 ]
# Fields = [ Z(km), T(K), U(m/s), V(m/s), R(g/cm3), P(mbar) ]
# Ground Height = 1.589
  0.000      3.06728e+02       3.38393e-01      -1.46029e+00       1.15059e-03       1.01287e+03
  0.100      3.06100e+02       3.56108e-01      -1.49362e+00       1.13948e-03       1.00104e+03
  0.200      3.05473e+02       3.76949e-01      -1.52974e+00       1.12847e-03       9.89341e+02
  0.300      3.04837e+02       3.65505e-01      -1.53699e+00       1.11763e-03       9.77793e+02
  0.400      3.04185e+02       2.94939e-01      -1.49108e+00       1.10698e-03       9.66401e+02
  0.500      3.03526e+02       2.11546e-01      -1.43086e+00       1.09647e-03       9.55155e+02
  0.600      3.02877e+02       1.94203e-01      -1.42312e+00       1.08602e-03       9.44033e+02
  0.700      3.02241e+02       2.36009e-01      -1.45701e+00       1.07563e-03       9.33037e+02
  0.800      3.01606e+02       2.52567e-01      -1.45166e+00       1.06536e-03       9.22187e+02
  0.900      3.00964e+02       2.09322e-01      -1.37760e+00       1.05525e-03       9.11491e+02
  1.000      3.00305e+02       1.71061e-01      -1.30720e+00       1.04532e-03       9.00931e+02
  1.100      2.99626e+02       1.95259e-01      -1.31064e+00       1.03554e-03       8.90492e+02
  1.200      2.98954e+02       2.43613e-01      -1.38754e+00       1.02585e-03       8.80176e+02
  1.300      2.98320e+02       2.49406e-01      -1.51497e+00       1.01613e-03       8.69988e+02
  1.400      2.97712e+02       2.11482e-01      -1.68024e+00       1.00643e-03       8.59930e+02
  1.500      2.97073e+02       1.95371e-01      -1.88105e+00       9.96953e-04       8.50001e+02
  1.600      2.96362e+02       2.51639e-01      -2.11394e+00       9.87820e-04       8.40198e+02
  1.700      2.95620e+02       3.58993e-01      -2.36900e+00       9.78879e-04       8.30510e+02
  1.800      2.94908e+02       4.78407e-01      -2.63482e+00       9.69917e-04       8.20924e+02
  1.900      2.94250e+02       5.78653e-01      -2.90496e+00       9.60851e-04       8.11436e+02
  2.000      2.93625e+02       6.37952e-01      -3.17901e+00       9.51752e-04       8.02045e+02
  2.100      2.93013e+02       6.37509e-01      -3.45455e+00       9.42693e-04       7.92754e+02
  2.200      2.92402e+02       5.77485e-01      -3.71085e+00       9.33706e-04       7.83561e+02
  2.300      2.91789e+02       4.67014e-01      -3.91852e+00       9.24807e-04       7.74464e+02
  2.400      2.91168e+02       3.17133e-01      -4.05626e+00       9.16006e-04       7.65461e+02
  2.500      2.90536e+02       1.45102e-01      -4.13015e+00       9.07313e-04       7.56552e+02
  2.600      2.89891e+02      -3.05436e-02      -4.15200e+00       8.98733e-04       7.47736e+02
  2.700      2.89232e+02      -1.93838e-01      -4.13531e+00       8.90270e-04       7.39010e+02
  2.800      2.88560e+02      -3.33699e-01      -4.09678e+00       8.81916e-04       7.30373e+02
  2.900      2.87875e+02      -4.39961e-01      -4.05326e+00       8.73663e-04       7.21820e+02
  3.000      2.87183e+02      -5.19331e-01      -4.01202e+00       8.65489e-04       7.13349e+02
  3.100      2.86499e+02      -6.02064e-01      -3.96696e+00       8.57350e-04       7.04959e+02
  3.200      2.85837e+02      -7.19601e-01      -3.91089e+00       8.49207e-04       6.96649e+02
  3.300      2.85192e+02      -8.82196e-01      -3.83413e+00       8.41071e-04       6.88418e+02
  3.400      2.84540e+02      -1.07289e+00      -3.72374e+00       8.33016e-04       6.80267e+02
  3.500      2.83854e+02      -1.27305e+00      -3.56657e+00       8.25122e-04       6.72196e+02
  3.600      2.83128e+02      -1.47008e+00      -3.35060e+00       8.17402e-04       6.64203e+02
  3.700      2.82386e+02      -1.66039e+00      -3.06542e+00       8.09780e-04       6.56285e+02
  3.800      2.81655e+02      -1.84108e+00      -2.70080e+00       8.02178e-04       6.48440e+02
  3.900      2.80950e+02      -2.00538e+00      -2.25402e+00       7.94547e-04       6.40665e+02
  4.000      2.80266e+02      -2.13787e+00      -1.73924e+00       7.86913e-04       6.32963e+02
  4.100      2.79590e+02      -2.22193e+00      -1.17288e+00       7.79309e-04       6.25336e+02
  4.200      2.78914e+02      -2.24466e+00      -5.71265e-01       7.71764e-04       6.17784e+02
  4.300      2.78237e+02      -2.21002e+00       4.97005e-02       7.64277e-04       6.10307e+02
  4.400      2.77561e+02      -2.12682e+00       6.74219e-01       7.56843e-04       6.02902e+02
  4.500      2.76888e+02      -2.00334e+00       1.28706e+00       7.49454e-04       5.95567e+02
  4.600      2.76224e+02      -1.84046e+00       1.88110e+00       7.42089e-04       5.88302e+02
  4.700      2.75583e+02      -1.63344e+00       2.45539e+00       7.34720e-04       5.81107e+02
  4.800      2.74976e+02      -1.37738e+00       3.00912e+00       7.27317e-04       5.73984e+02
  4.900      2.74407e+02      -1.06974e+00       3.53857e+00       7.19872e-04       5.66934e+02
  5.000      2.73861e+02      -7.14021e-01       4.03246e+00       7.12429e-04       5.59955e+02
  5.100      2.73317e+02      -3.14715e-01       4.47828e+00       7.05040e-04       5.53048e+02
  5.200      2.72757e+02       1.23615e-01       4.86404e+00       6.97752e-04       5.46210e+02
  5.300      2.72177e+02       5.95249e-01       5.18766e+00       6.90577e-04       5.39443e+02
  5.400      2.71583e+02       1.09345e+00       5.45555e+00       6.83492e-04       5.32744e+02
  5.500      2.70984e+02       1.61146e+00       5.67441e+00       6.76478e-04       5.26113e+02
  5.600      2.70387e+02       2.14182e+00       5.85010e+00       6.69514e-04       5.19549e+02
  5.700      2.69796e+02       2.67235e+00       5.98272e+00       6.62590e-04       5.13053e+02
  5.800      2.69215e+02       3.18896e+00       6.07003e+00       6.55698e-04       5.06624e+02
  5.900      2.68648e+02       3.67754e+00       6.10978e+00       6.48832e-04       5.00262e+02
  6.000      2.68095e+02       4.12485e+00       6.10140e+00       6.41988e-04       4.93967e+02
  6.100      2.67554e+02       4.52150e+00       6.05190e+00       6.35175e-04       4.87738e+02
  6.200      2.67019e+02       4.85922e+00       5.97045e+00       6.28407e-04       4.81576e+02
  6.300      2.66485e+02       5.12973e+00       5.86621e+00       6.21695e-04       4.75480e+02
  6.400      2.65947e+02       5.32658e+00       5.74777e+00       6.15051e-04       4.69448e+02
  6.500      2.65404e+02       5.45265e+00       5.62075e+00       6.08475e-04       4.63481e+02
  6.600      2.64856e+02       5.51380e+00       5.48987e+00       6.01967e-04       4.57578e+02
  6.700      2.64304e+02       5.51585e+00       5.35981e+00       5.95524e-04       4.51736e+02
  6.800      2.63746e+02       5.46492e+00       5.23448e+00       5.89147e-04       4.45955e+02
  6.900      2.63183e+02       5.36982e+00       5.10959e+00       5.82835e-04       4.40236e+02
  7.000      2.62613e+02       5.24096e+00       4.97602e+00       5.76591e-04       4.34576e+02
  7.100      2.62036e+02       5.08879e+00       4.82458e+00       5.70416e-04       4.28977e+02
  7.200      2.61450e+02       4.92371e+00       4.64615e+00       5.64312e-04       4.23438e+02
  7.300      2.60855e+02       4.75490e+00       4.43729e+00       5.58278e-04       4.17957e+02
  7.400      2.60255e+02       4.58930e+00       4.20458e+00       5.52309e-04       4.12536e+02
  7.500      2.59650e+02       4.43363e+00       3.95564e+00       5.46399e-04       4.07173e+02
  7.600      2.59043e+02       4.29460e+00       3.69811e+00       5.40544e-04       4.01868e+02
  7.700      2.58435e+02       4.17862e+00       3.43959e+00       5.34738e-04       3.96620e+02
  7.800      2.57827e+02       4.08830e+00       3.18782e+00       5.28983e-04       3.91429e+02
  7.900      2.57217e+02       4.02363e+00       2.95057e+00       5.23282e-04       3.86293e+02
  8.000      2.56601e+02       3.98458e+00       2.73562e+00       5.17639e-04       3.81212e+02
  8.100      2.55978e+02       3.97109e+00       2.55075e+00       5.12057e-04       3.76187e+02
  8.200      2.55346e+02       3.98287e+00       2.40275e+00       5.06540e-04       3.71215e+02
  8.300      2.54705e+02       4.01754e+00       2.29011e+00       5.01086e-04       3.66296e+02
  8.400      2.54058e+02       4.07170e+00       2.20723e+00       4.95690e-04       3.61430e+02
  8.500      2.53405e+02       4.14195e+00       2.14845e+00       4.90348e-04       3.56616e+02
  8.600      2.52748e+02       4.22485e+00       2.10814e+00       4.85056e-04       3.51854e+02
  8.700      2.52090e+02       4.31699e+00       2.08080e+00       4.79811e-04       3.47142e+02
  8.800      2.51430e+02       4.41457e+00       2.06339e+00       4.74611e-04       3.42481e+02
  8.900      2.50768e+02       4.51356e+00       2.05471e+00       4.69457e-04       3.37870e+02
  9.000      2.50105e+02       4.60992e+00       2.05358e+00       4.64348e-04       3.33309e+02
  9.100      2.49439e+02       4.69959e+00       2.05885e+00       4.59285e-04       3.28798e+02
  9.200      2.48772e+02       4.77854e+00       2.06933e+00       4.54268e-04       3.24336e+02
  9.300      2.48102e+02       4.84547e+00       2.08255e+00       4.49298e-04       3.19924e+02
  9.400      2.47427e+02       4.90607e+00       2.09267e+00       4.44378e-04       3.15560e+02
  9.500      2.46745e+02       4.96719e+00       2.09331e+00       4.39512e-04       3.11244e+02
  9.600      2.46054e+02       5.03566e+00       2.07807e+00       4.34702e-04       3.06976e+02
  9.700      2.45351e+02       5.11829e+00       2.04059e+00       4.29952e-04       3.02754e+02
  9.800      2.44635e+02       5.22184e+00       1.97458e+00       4.25264e-04       2.98579e+02
  9.900      2.43904e+02       5.34784e+00       1.87979e+00       4.20639e-04       2.94449e+02
 10.000      2.43162e+02       5.48995e+00       1.76508e+00       4.16070e-04       2.90365e+02
 10.100      2.42411e+02       5.64117e+00       1.64010e+00       4.11552e-04       2.86325e+02
 10.200      2.41653e+02       5.79449e+00       1.51447e+00       4.07081e-04       2.82329e+02
 10.300      2.40892e+02       5.94292e+00       1.39782e+00       4.02652e-04       2.78377e+02
 10.400      2.40128e+02       6.07945e+00       1.29979e+00       3.98260e-04       2.74468e+02
 10.500      2.39365e+02       6.19857e+00       1.22888e+00       3.93900e-04       2.70601e+02
 10.600      2.38602e+02       6.29875e+00       1.19060e+00       3.89575e-04       2.66776e+02
 10.700      2.37838e+02       6.37909e+00       1.18999e+00       3.85285e-04       2.62993e+02
 10.800      2.37071e+02       6.43872e+00       1.23206e+00       3.81032e-04       2.59252e+02
 10.900      2.36303e+02       6.47674e+00       1.32182e+00       3.76816e-04       2.55552e+02
 11.000      2.35530e+02       6.49226e+00       1.46431e+00       3.72639e-04       2.51893e+02
 11.100      2.34753e+02       6.48461e+00       1.66425e+00       3.68502e-04       2.48275e+02
 11.200      2.33971e+02       6.45810e+00       1.91891e+00       3.64406e-04       2.44697e+02
 11.300      2.33184e+02       6.42239e+00       2.21767e+00       3.60349e-04       2.41160e+02
 11.400      2.32392e+02       6.38738e+00       2.54954e+00       3.56333e-04       2.37661e+02
 11.500      2.31594e+02       6.36297e+00       2.90352e+00       3.52356e-04       2.34202e+02
 11.600      2.30790e+02       6.35907e+00       3.26860e+00       3.48418e-04       2.30781e+02
 11.700      2.29981e+02       6.38557e+00       3.63379e+00       3.44520e-04       2.27399e+02
 11.800      2.29166e+02       6.45233e+00       3.98813e+00       3.40661e-04       2.24055e+02
 11.900      2.28344e+02       6.56429e+00       4.32467e+00       3.36841e-04       2.20748e+02
 12.000      2.27514e+02       6.71767e+00       4.64351e+00       3.33062e-04       2.17478e+02
 12.100      2.26676e+02       6.90782e+00       4.94549e+00       3.29324e-04       2.14245e+02
 12.200      2.25828e+02       7.13010e+00       5.23143e+00       3.25629e-04       2.11048e+02
 12.300      2.24969e+02       7.37983e+00       5.50217e+00       3.21977e-04       2.07888e+02
 12.400      2.24098e+02       7.65237e+00       5.75855e+00       3.18370e-04       2.04763e+02
 12.500      2.23214e+02       7.94307e+00       6.00139e+00       3.14809e-04       2.01674e+02
 12.600      2.22315e+02       8.24729e+00       6.23153e+00       3.11295e-04       1.98620e+02
 12.700      2.21403e+02       8.56121e+00       6.44934e+00       3.07825e-04       1.95600e+02
 12.800      2.20481e+02       8.88191e+00       6.65478e+00       3.04394e-04       1.92615e+02
 12.900      2.19553e+02       9.20651e+00       6.84773e+00       3.00997e-04       1.89663e+02
 13.000      2.18621e+02       9.53215e+00       7.02811e+00       2.97629e-04       1.86745e+02
 13.100      2.17688e+02       9.85594e+00       7.19581e+00       2.94284e-04       1.83858e+02
 13.200      2.16759e+02       1.01750e+01       7.35073e+00       2.90957e-04       1.81004e+02
 13.300      2.15836e+02       1.04865e+01       7.49280e+00       2.87645e-04       1.78182e+02
 13.400      2.14924e+02       1.07875e+01       7.62189e+00       2.84341e-04       1.75390e+02
 13.500      2.14024e+02       1.10750e+01       7.73822e+00       2.81043e-04       1.72630e+02
 13.600      2.13139e+02       1.13442e+01       7.84376e+00       2.77747e-04       1.69901e+02
 13.700      2.12273e+02       1.15900e+01       7.94120e+00       2.74452e-04       1.67203e+02
 13.800      2.11428e+02       1.18071e+01       8.03318e+00       2.71157e-04       1.64538e+02
 13.900      2.10605e+02       1.19903e+01       8.12238e+00       2.67861e-04       1.61906e+02
 14.000      2.09808e+02       1.21344e+01       8.21147e+00       2.64563e-04       1.59306e+02
 14.100      2.09039e+02       1.22342e+01       8.30312e+00       2.61260e-04       1.56741e+02
 14.200      2.08301e+02       1.22844e+01       8.39999e+00       2.57952e-04       1.54209e+02
 14.300      2.07595e+02       1.22798e+01       8.50475e+00       2.54638e-04       1.51712e+02
 14.400      2.06924e+02       1.22152e+01       8.62002e+00       2.51316e-04       1.49250e+02
 14.500      2.06291e+02       1.20896e+01       8.74523e+00       2.47986e-04       1.46822e+02
 14.600      2.05699e+02       1.19085e+01       8.87441e+00       2.44645e-04       1.44428e+02
 14.700      2.05150e+02       1.16783e+01       9.00113e+00       2.41290e-04       1.42067e+02
 14.800      2.04646e+02       1.14051e+01       9.11893e+00       2.37919e-04       1.39738e+02
 14.900      2.04191e+02       1.10954e+01       9.22135e+00       2.34530e-04       1.37441e+02
 15.000      2.03788e+02       1.07554e+01       9.30196e+00       2.31121e-04       1.35176e+02
 15.100      2.03438e+02       1.03913e+01       9.35430e+00       2.27692e-04       1.32942e+02
 15.200      2.03144e+02       1.00094e+01       9.37191e+00       2.24240e-04       1.30737e+02
 15.300      2.02910e+02       9.61606e+00       9.34834e+00       2.20764e-04       1.28562e+02
 15.400      2.02738e+02       9.21749e+00       9.27715e+00       2.17264e-04       1.26417e+02
 15.500      2.02630e+02       8.81994e+00       9.15196e+00       2.13739e-04       1.24299e+02
 15.600      2.02586e+02       8.42711e+00       8.97134e+00       2.10193e-04       1.22211e+02
 15.700      2.02601e+02       8.03877e+00       8.74152e+00       2.06638e-04       1.20153e+02
 15.800      2.02669e+02       7.65432e+00       8.46939e+00       2.03084e-04       1.18126e+02
 15.900      2.02785e+02       7.27318e+00       8.16183e+00       1.99541e-04       1.16132e+02
 16.000      2.02943e+02       6.89479e+00       7.82574e+00       1.96020e-04       1.14171e+02
 16.100      2.03137e+02       6.51854e+00       7.46801e+00       1.92529e-04       1.12245e+02
 16.200      2.03362e+02       6.14386e+00       7.09553e+00       1.89076e-04       1.10354e+02
 16.300      2.03612e+02       5.77019e+00       6.71519e+00       1.85671e-04       1.08500e+02
 16.400      2.03882e+02       5.39691e+00       6.33388e+00       1.82319e-04       1.06682e+02
 16.500      2.04166e+02       5.02346e+00       5.95849e+00       1.79028e-04       1.04903e+02
 16.600      2.04458e+02       4.64926e+00       5.59591e+00       1.75804e-04       1.03161e+02
 16.700      2.04753e+02       4.27372e+00       5.25303e+00       1.72653e-04       1.01458e+02
 16.800      2.05045e+02       3.89626e+00       4.93674e+00       1.69579e-04       9.97939e+01
 16.900      2.05330e+02       3.51658e+00       4.65194e+00       1.66586e-04       9.81688e+01
 17.000      2.05608e+02       3.13511e+00       4.39801e+00       1.63670e-04       9.65808e+01
 17.100      2.05879e+02       2.75243e+00       4.17340e+00       1.60827e-04       9.50282e+01
 17.200      2.06144e+02       2.36913e+00       3.97657e+00       1.58053e-04       9.35093e+01
 17.300      2.06404e+02       1.98576e+00       3.80597e+00       1.55344e-04       9.20225e+01
 17.400      2.06657e+02       1.60291e+00       3.66004e+00       1.52698e-04       9.05661e+01
 17.500      2.06906e+02       1.22114e+00       3.53724e+00       1.50110e-04       8.91386e+01
 17.600      2.07151e+02       8.41036e-01       3.43601e+00       1.47578e-04       8.77387e+01
 17.700      2.07392e+02       4.63166e-01       3.35480e+00       1.45099e-04       8.63649e+01
 17.800      2.07629e+02       8.81128e-02       3.29207e+00       1.42669e-04       8.50160e+01
 17.900      2.07863e+02      -2.83564e-01       3.24625e+00       1.40287e-04       8.36906e+01
 18.000      2.08094e+02      -6.51283e-01       3.21581e+00       1.37949e-04       8.23877e+01
 18.100      2.08324e+02      -1.01447e+00       3.19920e+00       1.35654e-04       8.11060e+01
 18.200      2.08552e+02      -1.37256e+00       3.19485e+00       1.33398e-04       7.98446e+01
 18.300      2.08779e+02      -1.72495e+00       3.20123e+00       1.31180e-04       7.86023e+01
 18.400      2.09005e+02      -2.07110e+00       3.21677e+00       1.28997e-04       7.73782e+01
 18.500      2.09230e+02      -2.41043e+00       3.23994e+00       1.26848e-04       7.61713e+01
 18.600      2.09456e+02      -2.74235e+00       3.26917e+00       1.24731e-04       7.49808e+01
 18.700      2.09683e+02      -3.06630e+00       3.30293e+00       1.22644e-04       7.38058e+01
 18.800      2.09911e+02      -3.38170e+00       3.33965e+00       1.20585e-04       7.26456e+01
 18.900      2.10141e+02      -3.68798e+00       3.37780e+00       1.18552e-04       7.14993e+01
 19.000      2.10372e+02      -3.98456e+00       3.41581e+00       1.16545e-04       7.03662e+01
 19.100      2.10606e+02      -4.27091e+00       3.45221e+00       1.14562e-04       6.92458e+01
 19.200      2.10843e+02      -4.54689e+00       3.48626e+00       1.12603e-04       6.81381e+01
 19.300      2.11081e+02      -4.81264e+00       3.51770e+00       1.10669e-04       6.70436e+01
 19.400      2.11322e+02      -5.06828e+00       3.54629e+00       1.08761e-04       6.59626e+01
 19.500      2.11563e+02      -5.31396e+00       3.57178e+00       1.06879e-04       6.48956e+01
 19.600      2.11805e+02      -5.54980e+00       3.59391e+00       1.05026e-04       6.38430e+01
 19.700      2.12047e+02      -5.77593e+00       3.61244e+00       1.03200e-04       6.28051e+01
 19.800      2.12290e+02      -5.99248e+00       3.62712e+00       1.01404e-04       6.17823e+01
 19.900      2.12531e+02      -6.19959e+00       3.63769e+00       9.96363e-05       6.07746e+01
 20.000      2.12772e+02      -6.39740e+00       3.64391e+00       9.78990e-05       5.97826e+01
 20.100      2.13011e+02      -6.58603e+00       3.64553e+00       9.61919e-05       5.88062e+01
 20.200      2.13249e+02      -6.76561e+00       3.64230e+00       9.45155e-05       5.78459e+01
 20.300      2.13484e+02      -6.93628e+00       3.63396e+00       9.28702e-05       5.69016e+01
