# Data Source: NASA GEOS5 Near-Real-Time
# Model Time = 2010-08-01 18:00:00
# Location = [  39.7393, -104.9900 ]
# Fields = [ Z(km), T(K), U(m/s), V(m/s), R(g/cm3), P(mbar) ]
# Ground Height = 1.589
  0.000      3.11534e+02      -1.76589e+00      -6.73422e-01       1.12965e-03       1.01002e+03
  0.100      3.10956e+02      -1.77842e+00      -6.85307e-01       1.11853e-03       9.98228e+02
  0.200      3.10374e+02      -1.78972e+00      -6.96172e-01       1.10755e-03       9.86576e+02
  0.300      3.09759e+02      -1.79155e+00      -6.99261e-01       1.09681e-03       9.75074e+02
  0.400      3.09096e+02      -1.77941e+00      -6.91576e-01       1.08637e-03       9.63729e+02
  0.500      3.08426e+02      -1.76386e+00      -6.85451e-01       1.07609e-03       9.52537e+02
  0.600      3.07794e+02      -1.75749e+00      -6.93421e-01       1.06580e-03       9.41494e+02
  0.700      3.07183e+02      -1.75804e+00      -6.98000e-01       1.05556e-03       9.30598e+02
  0.800      3.06544e+02      -1.75639e+00      -6.68504e-01       1.04554e-03       9.19848e+02
  0.900      3.05871e+02      -1.75068e+00      -6.08833e-01       1.03576e-03       9.09240e+02
  1.000      3.05193e+02      -1.74677e+00      -5.59324e-01       1.02610e-03       8.98768e+02
  1.100      3.04536e+02      -1.74942e+00      -5.48292e-01       1.01648e-03       8.88427e+02
  1.200      3.03903e+02      -1.75937e+00      -5.65321e-01       1.00690e-03       8.78220e+02
  1.300      3.03291e+02      -1.77715e+00      -5.94986e-01       9.97369e-04       8.68154e+02
  1.400      3.02676e+02      -1.80910e+00      -6.41316e-01       9.87965e-04       8.58226e+02
  1.500      3.02023e+02      -1.86512e+00      -7.20377e-01       9.78797e-04       8.48428e+02
  1.600      3.01309e+02      -1.94629e+00      -8.42408e-01       9.69931e-04       8.38755e+02
  1.700      3.00543e+02      -2.03156e+00      -1.00270e+00       9.61323e-04       8.29196e+02
  1.800      2.99738e+02      -2.09740e+00      -1.19435e+00       9.52914e-04       8.19742e+02
  1.900      2.98913e+02      -2.13583e+00      -1.41244e+00       9.44638e-04       8.10387e+02
  2.000      2.98089e+02      -2.15231e+00      -1.65375e+00       9.36424e-04       8.01127e+02
  2.100      2.97284e+02      -2.15131e+00      -1.91469e+00       9.28214e-04       7.91958e+02
  2.200      2.96494e+02      -2.12908e+00      -2.18931e+00       9.20019e-04       7.82880e+02
  2.300      2.95708e+02      -2.07892e+00      -2.47080e+00       9.11877e-04       7.73892e+02
  2.400      2.94916e+02      -1.99921e+00      -2.75309e+00       9.03812e-04       7.64995e+02
  2.500      2.94120e+02      -1.90249e+00      -3.03212e+00       8.95821e-04       7.56185e+02
  2.600      2.93322e+02      -1.80372e+00      -3.30413e+00       8.87897e-04       7.47461e+02
  2.700      2.92518e+02      -1.71566e+00      -3.56219e+00       8.80043e-04       7.38820e+02
  2.800      2.91699e+02      -1.64735e+00      -3.79381e+00       8.72291e-04       7.30261e+02
  2.900      2.90854e+02      -1.60719e+00      -3.98621e+00       8.64669e-04       7.21784e+02
  3.000      2.89984e+02      -1.59129e+00      -4.13670e+00       8.57172e-04       7.13385e+02
  3.100      2.89105e+02      -1.57903e+00      -4.25645e+00       8.49749e-04       7.05063e+02
  3.200      2.88233e+02      -1.54893e+00      -4.35738e+00       8.42346e-04       6.96813e+02
  3.300      2.87380e+02      -1.49376e+00      -4.44198e+00       8.34931e-04       6.88636e+02
  3.400      2.86548e+02      -1.42554e+00      -4.50008e+00       8.27500e-04       6.80530e+02
  3.500      2.85739e+02      -1.35757e+00      -4.52069e+00       8.20049e-04       6.72498e+02
  3.600      2.84954e+02      -1.30141e+00      -4.49828e+00       8.12576e-04       6.64540e+02
  3.700      2.84197e+02      -1.26572e+00      -4.43625e+00       8.05076e-04       6.56656e+02
  3.800      2.83468e+02      -1.25888e+00      -4.33883e+00       7.97546e-04       6.48846e+02
  3.900      2.82765e+02      -1.28717e+00      -4.20923e+00       7.89996e-04       6.41110e+02
  4.000      2.82071e+02      -1.35146e+00      -4.04799e+00       7.82472e-04       6.33445e+02
  4.100      2.81368e+02      -1.45177e+00      -3.85523e+00       7.75024e-04       6.25851e+02
  4.200      2.80639e+02      -1.58623e+00      -3.63132e+00       7.67692e-04       6.18326e+02
  4.300      2.79888e+02      -1.74236e+00      -3.37820e+00       7.60469e-04       6.10868e+02
  4.400      2.79123e+02      -1.90397e+00      -3.09833e+00       7.53329e-04       6.03480e+02
  4.500      2.78354e+02      -2.05477e+00      -2.79408e+00       7.46250e-04       5.96161e+02
  4.600      2.77588e+02      -2.17629e+00      -2.46615e+00       7.39208e-04       5.88911e+02
  4.700      2.76835e+02      -2.24803e+00      -2.11361e+00       7.32181e-04       5.81730e+02
  4.800      2.76102e+02      -2.24939e+00      -1.73549e+00       7.25149e-04       5.74618e+02
  4.900      2.75396e+02      -2.16526e+00      -1.33366e+00       7.18100e-04       5.67576e+02
  5.000      2.74708e+02      -1.99908e+00      -9.19652e-01       7.11054e-04       5.60603e+02
  5.100      2.74029e+02      -1.75827e+00      -5.07074e-01       7.04035e-04       5.53697e+02
  5.200      2.73350e+02      -1.45034e+00      -1.09280e-01       6.97066e-04       5.46859e+02
  5.300      2.72667e+02      -1.08532e+00       2.67148e-01       6.90159e-04       5.40086e+02
  5.400      2.71979e+02      -6.76075e-01       6.23130e-01       6.83313e-04       5.33381e+02
  5.500      2.71289e+02      -2.35599e-01       9.59981e-01       6.76524e-04       5.26741e+02
  5.600      2.70596e+02       2.23436e-01       1.27902e+00       6.69790e-04       5.20166e+02
  5.700      2.69909e+02       6.91365e-01       1.58157e+00       6.63093e-04       5.13658e+02
  5.800      2.69237e+02       1.16013e+00       1.86898e+00       6.56411e-04       5.07215e+02
  5.900      2.68589e+02       1.62169e+00       2.14258e+00       6.49723e-04       5.00840e+02
  6.000      2.67975e+02       2.06754e+00       2.40331e+00       6.43010e-04       4.94531e+02
  6.100      2.67392e+02       2.48644e+00       2.64977e+00       6.36278e-04       4.88289e+02
  6.200      2.66836e+02       2.86617e+00       2.87966e+00       6.29538e-04       4.82112e+02
  6.300      2.66302e+02       3.19448e+00       3.09069e+00       6.22804e-04       4.76000e+02
  6.400      2.65784e+02       3.46032e+00       3.28125e+00       6.16088e-04       4.69951e+02
  6.500      2.65276e+02       3.66062e+00       3.45428e+00       6.09406e-04       4.63967e+02
  6.600      2.64772e+02       3.79550e+00       3.61455e+00       6.02776e-04       4.58047e+02
  6.700      2.64263e+02       3.86512e+00       3.76687e+00       5.96216e-04       4.52191e+02
  6.800      2.63744e+02       3.86994e+00       3.91568e+00       5.89740e-04       4.46401e+02
  6.900      2.63209e+02       3.81486e+00       4.06124e+00       5.83357e-04       4.40674e+02
  7.000      2.62659e+02       3.70797e+00       4.20068e+00       5.77067e-04       4.35011e+02
  7.100      2.62090e+02       3.55743e+00       4.33108e+00       5.70872e-04       4.29409e+02
  7.200      2.61501e+02       3.37140e+00       4.44954e+00       5.64773e-04       4.23867e+02
  7.300      2.60893e+02       3.15535e+00       4.55256e+00       5.58769e-04       4.18384e+02
  7.400      2.60266e+02       2.90891e+00       4.63543e+00       5.52851e-04       4.12960e+02
  7.500      2.59626e+02       2.63090e+00       4.69328e+00       5.47011e-04       4.07592e+02
  7.600      2.58974e+02       2.32016e+00       4.72121e+00       5.41242e-04       4.02281e+02
  7.700      2.58313e+02       1.97590e+00       4.71469e+00       5.35536e-04       3.97024e+02
  7.800      2.57646e+02       1.60355e+00       4.67497e+00       5.29888e-04       3.91822e+02
  7.900      2.56972e+02       1.21382e+00       4.60820e+00       5.24298e-04       3.86675e+02
  8.000      2.56292e+02       8.17543e-01       4.52063e+00       5.18765e-04       3.81581e+02
  8.100      2.55606e+02       4.25581e-01       4.41854e+00       5.13286e-04       3.76541e+02
  8.200      2.54916e+02       4.85832e-02       4.30842e+00       5.07861e-04       3.71555e+02
  8.300      2.54219e+02      -3.04970e-01       4.19889e+00       5.02490e-04       3.66621e+02
  8.400      2.53515e+02      -6.27883e-01       4.09989e+00       4.97176e-04       3.61739e+02
  8.500      2.52802e+02      -9.12996e-01       4.02136e+00       4.91921e-04       3.56909e+02
  8.600      2.52079e+02      -1.15313e+00       3.97324e+00       4.86727e-04       3.52130e+02
  8.700      2.51344e+02      -1.34131e+00       3.96511e+00       4.81594e-04       3.47401e+02
  8.800      2.50600e+02      -1.47387e+00       3.99942e+00       4.76519e-04       3.42723e+02
  8.900      2.49852e+02      -1.55006e+00       4.07243e+00       4.71490e-04       3.38094e+02
  9.000      2.49105e+02      -1.56925e+00       4.18018e+00       4.66498e-04       3.33514e+02
  9.100      2.48366e+02      -1.53079e+00       4.31872e+00       4.61531e-04       3.28984e+02
  9.200      2.47639e+02      -1.43403e+00       4.48408e+00       4.56580e-04       3.24503e+02
  9.300      2.46928e+02      -1.28116e+00       4.67194e+00       4.51640e-04       3.20070e+02
  9.400      2.46230e+02      -1.08246e+00       4.87687e+00       4.46717e-04       3.15686e+02
  9.500      2.45539e+02      -8.49648e-01       5.09328e+00       4.41819e-04       3.11349e+02
  9.600      2.44853e+02      -5.94464e-01       5.31554e+00       4.36954e-04       3.07059e+02
  9.700      2.44165e+02      -3.28636e-01       5.53805e+00       4.32129e-04       3.02816e+02
  9.800      2.43473e+02      -6.37813e-02       5.75524e+00       4.27351e-04       2.98619e+02
  9.900      2.42773e+02       1.94946e-01       5.96417e+00       4.22626e-04       2.94468e+02
 10.000      2.42066e+02       4.52525e-01       6.16602e+00       4.17951e-04       2.90363e+02
 10.100      2.41352e+02       7.14807e-01       6.36232e+00       4.13325e-04       2.86302e+02
 10.200      2.40633e+02       9.87643e-01       6.55461e+00       4.08747e-04       2.82287e+02
 10.300      2.39909e+02       1.27689e+00       6.74442e+00       4.04215e-04       2.78317e+02
 10.400      2.39180e+02       1.58839e+00       6.93328e+00       3.99728e-04       2.74391e+02
 10.500      2.38447e+02       1.92426e+00       7.12071e+00       3.95284e-04       2.70510e+02
 10.600      2.37711e+02       2.27715e+00       7.30117e+00       3.90882e-04       2.66672e+02
 10.700      2.36973e+02       2.63827e+00       7.46834e+00       3.86521e-04       2.62878e+02
 10.800      2.36232e+02       2.99879e+00       7.61588e+00       3.82198e-04       2.59126e+02
 10.900      2.35491e+02       3.34992e+00       7.73748e+00       3.77913e-04       2.55415e+02
 11.000      2.34748e+02       3.68285e+00       7.82681e+00       3.73663e-04       2.51747e+02
 11.100      2.34006e+02       3.98891e+00       7.87806e+00       3.69447e-04       2.48119e+02
 11.200      2.33262e+02       4.26231e+00       7.89671e+00       3.65266e-04       2.44532e+02
 11.300      2.32516e+02       4.50001e+00       7.89890e+00       3.61122e-04       2.40985e+02
 11.400      2.31766e+02       4.69906e+00       7.90118e+00       3.57019e-04       2.37478e+02
 11.500      2.31010e+02       4.85653e+00       7.92013e+00       3.52958e-04       2.34010e+02
 11.600      2.30245e+02       4.96949e+00       7.97231e+00       3.48942e-04       2.30582e+02
 11.700      2.29471e+02       5.03499e+00       8.07429e+00       3.44974e-04       2.27194e+02
 11.800      2.28686e+02       5.05018e+00       8.24246e+00       3.41055e-04       2.23844e+02
 11.900      2.27888e+02       5.01744e+00       8.48409e+00       3.37186e-04       2.20532e+02
 12.000      2.27079e+02       4.94688e+00       8.79275e+00       3.33364e-04       2.17259e+02
 12.100      2.26260e+02       4.84930e+00       9.16091e+00       3.29587e-04       2.14023e+02
 12.200      2.25433e+02       4.73546e+00       9.58104e+00       3.25853e-04       2.10825e+02
 12.300      2.24598e+02       4.61615e+00       1.00456e+01       3.22159e-04       2.07663e+02
 12.400      2.23758e+02       4.50213e+00       1.05470e+01       3.18503e-04       2.04537e+02
 12.500      2.22912e+02       4.40419e+00       1.10778e+01       3.14882e-04       2.01448e+02
 12.600      2.22063e+02       4.33291e+00       1.16302e+01       3.11294e-04       1.98394e+02
 12.700      2.21210e+02       4.29497e+00       1.21910e+01       3.07738e-04       1.95375e+02
 12.800      2.20356e+02       4.29342e+00       1.27421e+01       3.04213e-04       1.92390e+02
 12.900      2.19499e+02       4.33116e+00       1.32654e+01       3.00717e-04       1.89440e+02
 13.000      2.18641e+02       4.41110e+00       1.37426e+01       2.97249e-04       1.86523e+02
 13.100      2.17781e+02       4.53615e+00       1.41553e+01       2.93809e-04       1.83640e+02
 13.200      2.16921e+02       4.70923e+00       1.44855e+01       2.90394e-04       1.80789e+02
 13.300      2.16061e+02       4.93322e+00       1.47147e+01       2.87006e-04       1.77971e+02
 13.400      2.15201e+02       5.21106e+00       1.48249e+01       2.83641e-04       1.75185e+02
 13.500      2.14343e+02       5.54308e+00       1.48024e+01       2.80299e-04       1.72430e+02
 13.600      2.13489e+02       5.91721e+00       1.46571e+01       2.76977e-04       1.69707e+02
 13.700      2.12644e+02       6.31754e+00       1.44058e+01       2.73669e-04       1.67017e+02
 13.800      2.11813e+02       6.72818e+00       1.40654e+01       2.70371e-04       1.64360e+02
 13.900      2.11001e+02       7.13323e+00       1.36528e+01       2.67079e-04       1.61736e+02
 14.000      2.10211e+02       7.51681e+00       1.31848e+01       2.63790e-04       1.59146e+02
 14.100      2.09448e+02       7.86301e+00       1.26785e+01       2.60499e-04       1.56589e+02
 14.200      2.08716e+02       8.15593e+00       1.21505e+01       2.57202e-04       1.54067e+02
 14.300      2.08020e+02       8.37969e+00       1.16179e+01       2.53895e-04       1.51580e+02
 14.400      2.07365e+02       8.51859e+00       1.10974e+01       2.50577e-04       1.49127e+02
 14.500      2.06752e+02       8.56717e+00       1.05994e+01       2.47244e-04       1.46709e+02
 14.600      2.06184e+02       8.53488e+00       1.01257e+01       2.43896e-04       1.44324e+02
 14.700      2.05659e+02       8.43233e+00       9.67700e+00       2.40533e-04       1.41973e+02
 14.800      2.05179e+02       8.27012e+00       9.25416e+00       2.37156e-04       1.39652e+02
 14.900      2.04743e+02       8.05887e+00       8.85804e+00       2.33766e-04       1.37364e+02
 15.000      2.04353e+02       7.80918e+00       8.48947e+00       2.30361e-04       1.35105e+02
 15.100      2.04008e+02       7.53167e+00       8.14930e+00       2.26944e-04       1.32876e+02
 15.200      2.03708e+02       7.23695e+00       7.83838e+00       2.23514e-04       1.30676e+02
 15.300      2.03456e+02       6.93563e+00       7.55754e+00       2.20073e-04       1.28504e+02
 15.400      2.03249e+02       6.63831e+00       7.30763e+00       2.16621e-04       1.26360e+02
 15.500      2.03090e+02       6.35551e+00       7.08946e+00       2.13158e-04       1.24243e+02
 15.600      2.02976e+02       6.09254e+00       6.90221e+00       2.09690e-04       1.22153e+02
 15.700      2.02906e+02       5.84722e+00       6.74273e+00       2.06224e-04       1.20092e+02
 15.800      2.02875e+02       5.61676e+00       6.60766e+00       2.02768e-04       1.18061e+02
 15.900      2.02880e+02       5.39838e+00       6.49365e+00       1.99329e-04       1.16062e+02
 16.000      2.02919e+02       5.18930e+00       6.39735e+00       1.95914e-04       1.14096e+02
 16.100      2.02989e+02       4.98676e+00       6.31541e+00       1.92531e-04       1.12164e+02
 16.200      2.03085e+02       4.78796e+00       6.24449e+00       1.89185e-04       1.10268e+02
 16.300      2.03206e+02       4.59013e+00       6.18123e+00       1.85882e-04       1.08407e+02
 16.400      2.03347e+02       4.39049e+00       6.12229e+00       1.82628e-04       1.06583e+02
 16.500      2.03506e+02       4.18625e+00       6.06431e+00       1.79427e-04       1.04797e+02
 16.600      2.03680e+02       3.97465e+00       6.00394e+00       1.76284e-04       1.03049e+02
 16.700      2.03865e+02       3.75290e+00       5.93784e+00       1.73204e-04       1.01340e+02
 16.800      2.04058e+02       3.51824e+00       5.86266e+00       1.70189e-04       9.96706e+01
 16.900      2.04257e+02       3.26892e+00       5.77625e+00       1.67243e-04       9.80404e+01
 17.000      2.04461e+02       3.00558e+00       5.67914e+00       1.64361e-04       9.64477e+01
 17.100      2.04672e+02       2.72916e+00       5.57221e+00       1.61542e-04       9.48908e+01
 17.200      2.04887e+02       2.44060e+00       5.45634e+00       1.58782e-04       9.33678e+01
 17.300      2.05108e+02       2.14086e+00       5.33243e+00       1.56078e-04       9.18771e+01
 17.400      2.05334e+02       1.83086e+00       5.20135e+00       1.53429e-04       9.04172e+01
 17.500      2.05566e+02       1.51155e+00       5.06399e+00       1.50831e-04       8.89864e+01
 17.600      2.05802e+02       1.18388e+00       4.92124e+00       1.48283e-04       8.75834e+01
 17.700      2.06043e+02       8.48781e-01       4.77398e+00       1.45781e-04       8.62067e+01
 17.800      2.06289e+02       5.07211e-01       4.62310e+00       1.43324e-04       8.48552e+01
 17.900      2.06540e+02       1.60098e-01       4.46949e+00       1.40910e-04       8.35274e+01
 18.000      2.06796e+02      -1.91610e-01       4.31402e+00       1.38537e-04       8.22222e+01
 18.100      2.07056e+02      -5.46970e-01       4.15758e+00       1.36203e-04       8.09385e+01
 18.200      2.07321e+02      -9.05038e-01       4.00106e+00       1.33906e-04       7.96751e+01
 18.300      2.07590e+02      -1.26487e+00       3.84535e+00       1.31644e-04       7.84311e+01
 18.400      2.07863e+02      -1.62552e+00       3.69133e+00       1.29416e-04       7.72054e+01
 18.500      2.08140e+02      -1.98606e+00       3.53988e+00       1.27221e-04       7.59971e+01
 18.600      2.08422e+02      -2.34554e+00       3.39189e+00       1.25057e-04       7.48054e+01
 18.700      2.08708e+02      -2.70301e+00       3.24825e+00       1.22922e-04       7.36293e+01
 18.800      2.08998e+02      -3.05753e+00       3.10984e+00       1.20816e-04       7.24680e+01
 18.900      2.09291e+02      -3.40816e+00       2.97755e+00       1.18736e-04       7.13209e+01
 19.000      2.09588e+02      -3.75396e+00       2.85225e+00       1.16683e-04       7.01871e+01
 19.100      2.09889e+02      -4.09406e+00       2.73474e+00       1.14655e-04       6.90661e+01
 19.200      2.10193e+02      -4.42810e+00       2.62513e+00       1.12652e-04       6.79581e+01
 19.300      2.10500e+02      -4.75592e+00       2.52324e+00       1.10677e-04       6.68635e+01
 19.400      2.10808e+02      -5.07739e+00       2.42892e+00       1.08729e-04       6.57828e+01
 19.500      2.11117e+02      -5.39233e+00       2.34199e+00       1.06809e-04       6.47163e+01
 19.600      2.11427e+02      -5.70060e+00       2.26229e+00       1.04919e-04       6.36644e+01
 19.700      2.11737e+02      -6.00205e+00       2.18965e+00       1.03059e-04       6.26275e+01
 19.800      2.12046e+02      -6.29652e+00       2.12391e+00       1.01230e-04       6.16058e+01
 19.900      2.12354e+02      -6.58387e+00       2.06489e+00       9.94325e-05       6.05997e+01
 20.000      2.12659e+02      -6.86393e+00       2.01244e+00       9.76668e-05       5.96092e+01
 20.100      2.12962e+02      -7.13656e+00       1.96638e+00       9.59335e-05       5.86347e+01
 20.200      2.13262e+02      -7.40160e+00       1.92656e+00       9.42330e-05       5.76763e+01
 20.300      2.13557e+02      -7.65889e+00       1.89279e+00       9.25655e-05       5.67343e+01
