# Data Source: NASA GEOS5 Near-Real-Time
# Model Time = 2010-04-02 12:00:00
# Location = [  39.7393, -104.9900 ]
# Fields = [ Z(km), T(K), U(m/s), V(m/s), R(g/cm3), P(mbar) ]
# Ground Height = 1.589
  0.000      2.82165e+02       4.11920e+00      -9.93729e-01       1.24650e-03       1.00943e+03
  0.100      2.81510e+02       4.10708e+00      -1.01400e+00       1.23436e-03       9.97277e+02
  0.200      2.80854e+02       4.09692e+00      -1.03651e+00       1.22233e-03       9.85262e+02
  0.300      2.80194e+02       4.09737e+00      -1.07120e+00       1.21042e-03       9.73366e+02
  0.400      2.79532e+02       4.11390e+00      -1.11954e+00       1.19859e-03       9.61575e+02
  0.500      2.78879e+02       4.14339e+00      -1.16034e+00       1.18680e-03       9.49897e+02
  0.600      2.78245e+02       4.17202e+00      -1.17804e+00       1.17504e-03       9.38341e+02
  0.700      2.77608e+02       4.14964e+00      -1.19340e+00       1.16338e-03       9.26906e+02
  0.800      2.76942e+02       4.03635e+00      -1.23273e+00       1.15194e-03       9.15589e+02
  0.900      2.76260e+02       3.91977e+00      -1.30048e+00       1.14065e-03       9.04382e+02
  1.000      2.75583e+02       3.92603e+00      -1.38922e+00       1.12941e-03       8.93279e+02
  1.100      2.74911e+02       3.98204e+00      -1.44838e+00       1.11823e-03       8.82278e+02
  1.200      2.74221e+02       3.86703e+00      -1.39613e+00       1.10720e-03       8.71384e+02
  1.300      2.73520e+02       3.55198e+00      -1.22993e+00       1.09630e-03       8.60601e+02
  1.400      2.72856e+02       3.31105e+00      -1.07145e+00       1.08535e-03       8.49931e+02
  1.500      2.72266e+02       3.37134e+00      -1.02292e+00       1.07419e-03       8.39376e+02
  1.600      2.71729e+02       3.67304e+00      -1.06823e+00       1.06292e-03       8.28931e+02
  1.700      2.71212e+02       4.08873e+00      -1.16494e+00       1.05166e-03       8.18589e+02
  1.800      2.70692e+02       4.52950e+00      -1.30786e+00       1.04050e-03       8.08351e+02
  1.900      2.70155e+02       4.93456e+00      -1.51886e+00       1.02950e-03       7.98217e+02
  2.000      2.69586e+02       5.27084e+00      -1.80261e+00       1.01871e-03       7.88190e+02
  2.100      2.68966e+02       5.56995e+00      -2.12140e+00       1.00821e-03       7.78271e+02
  2.200      2.68278e+02       5.87263e+00      -2.43646e+00       9.98055e-04       7.68459e+02
  2.300      2.67546e+02       6.21679e+00      -2.76894e+00       9.88139e-04       7.58749e+02
  2.400      2.66820e+02       6.63849e+00      -3.17851e+00       9.78268e-04       7.49132e+02
  2.500      2.66137e+02       7.15237e+00      -3.69619e+00       9.68305e-04       7.39605e+02
  2.600      2.65489e+02       7.70773e+00      -4.26363e+00       9.58289e-04       7.30173e+02
  2.700      2.64862e+02       8.24307e+00      -4.80697e+00       9.48289e-04       7.20845e+02
  2.800      2.64234e+02       8.74499e+00      -5.29726e+00       9.38379e-04       7.11621e+02
  2.900      2.63581e+02       9.25531e+00      -5.75711e+00       9.28636e-04       7.02492e+02
  3.000      2.62880e+02       9.81168e+00      -6.20771e+00       9.19129e-04       6.93452e+02
  3.100      2.62131e+02       1.03831e+01      -6.62943e+00       9.09854e-04       6.84498e+02
  3.200      2.61347e+02       1.09007e+01      -6.98024e+00       9.00770e-04       6.75637e+02
  3.300      2.60540e+02       1.13080e+01      -7.22408e+00       8.91835e-04       6.66870e+02
  3.400      2.59720e+02       1.16109e+01      -7.35585e+00       8.83010e-04       6.58193e+02
  3.500      2.58897e+02       1.18349e+01      -7.38008e+00       8.74256e-04       6.49602e+02
  3.600      2.58078e+02       1.20025e+01      -7.30585e+00       8.65540e-04       6.41092e+02
  3.700      2.57266e+02       1.21258e+01      -7.15818e+00       8.56859e-04       6.32664e+02
  3.800      2.56461e+02       1.22146e+01      -6.96558e+00       8.48211e-04       6.24320e+02
  3.900      2.55661e+02       1.22758e+01      -6.75087e+00       8.39606e-04       6.16060e+02
  4.000      2.54856e+02       1.23070e+01      -6.51924e+00       8.31081e-04       6.07883e+02
  4.100      2.54032e+02       1.23041e+01      -6.27242e+00       8.22677e-04       5.99791e+02
  4.200      2.53182e+02       1.22593e+01      -6.01027e+00       8.14417e-04       5.91781e+02
  4.300      2.52316e+02       1.21514e+01      -5.72582e+00       8.06262e-04       5.83852e+02
  4.400      2.51450e+02       1.19559e+01      -5.41051e+00       7.98162e-04       5.76004e+02
  4.500      2.50598e+02       1.16548e+01      -5.05888e+00       7.90073e-04       5.68234e+02
  4.600      2.49759e+02       1.12685e+01      -4.68366e+00       7.81999e-04       5.60543e+02
  4.700      2.48925e+02       1.08313e+01      -4.30427e+00       7.73962e-04       5.52930e+02
  4.800      2.48092e+02       1.03765e+01      -3.93912e+00       7.65981e-04       5.45396e+02
  4.900      2.47255e+02       9.92431e+00      -3.59235e+00       7.58066e-04       5.37940e+02
  5.000      2.46414e+02       9.48481e+00      -3.25743e+00       7.50220e-04       5.30561e+02
  5.100      2.45568e+02       9.06790e+00      -2.92761e+00       7.42445e-04       5.23260e+02
  5.200      2.44714e+02       8.67718e+00      -2.59786e+00       7.34750e-04       5.16036e+02
  5.300      2.43843e+02       8.30365e+00      -2.26661e+00       7.27157e-04       5.08886e+02
  5.400      2.42947e+02       7.93684e+00      -1.93275e+00       7.19689e-04       5.01809e+02
  5.500      2.42018e+02       7.56682e+00      -1.59439e+00       7.12364e-04       4.94803e+02
  5.600      2.41064e+02       7.18863e+00      -1.24330e+00       7.05158e-04       4.87867e+02
  5.700      2.40101e+02       6.79989e+00      -8.67873e-01       6.98026e-04       4.81002e+02
  5.800      2.39143e+02       6.39827e+00      -4.56491e-01       6.90923e-04       4.74208e+02
  5.900      2.38201e+02       5.98579e+00      -3.64172e-03       6.83820e-04       4.67484e+02
  6.000      2.37275e+02       5.57684e+00       4.78927e-01       6.76719e-04       4.60831e+02
  6.100      2.36361e+02       5.18796e+00       9.76435e-01       6.69631e-04       4.54248e+02
  6.200      2.35456e+02       4.83551e+00       1.47426e+00       6.62565e-04       4.47734e+02
  6.300      2.34561e+02       4.52583e+00       1.96615e+00       6.55518e-04       4.41289e+02
  6.400      2.33684e+02       4.25039e+00       2.45829e+00       6.48471e-04       4.34912e+02
  6.500      2.32833e+02       3.99942e+00       2.95787e+00       6.41403e-04       4.28605e+02
  6.600      2.32016e+02       3.76382e+00       3.47214e+00       6.34294e-04       4.22368e+02
  6.700      2.31239e+02       3.55673e+00       4.00976e+00       6.27131e-04       4.16199e+02
  6.800      2.30506e+02       3.41838e+00       4.58115e+00       6.19909e-04       4.10102e+02
  6.900      2.29819e+02       3.39070e+00       5.19685e+00       6.12622e-04       4.04074e+02
  7.000      2.29184e+02       3.51527e+00       5.86721e+00       6.05266e-04       3.98118e+02
  7.100      2.28611e+02       3.81212e+00       6.59060e+00       5.97815e-04       3.92234e+02
  7.200      2.28127e+02       4.26639e+00       7.34609e+00       5.90210e-04       3.86425e+02
  7.300      2.27760e+02       4.86006e+00       8.11095e+00       5.82394e-04       3.80693e+02
  7.400      2.27536e+02       5.57508e+00       8.86244e+00       5.74312e-04       3.75041e+02
  7.500      2.27471e+02       6.38859e+00       9.58051e+00       5.65941e-04       3.69470e+02
  7.600      2.27533e+02       7.25791e+00       1.02559e+01       5.57381e-04       3.63981e+02
  7.700      2.27678e+02       8.13533e+00       1.08822e+01       5.48754e-04       3.58575e+02
  7.800      2.27860e+02       8.97311e+00       1.14530e+01       5.40175e-04       3.53251e+02
  7.900      2.28035e+02       9.72431e+00       1.19618e+01       5.31752e-04       3.48011e+02
  8.000      2.28177e+02       1.03752e+01       1.24051e+01       5.23547e-04       3.42854e+02
  8.100      2.28279e+02       1.09574e+01       1.27828e+01       5.15562e-04       3.37776e+02
  8.200      2.28338e+02       1.15058e+01       1.30955e+01       5.07796e-04       3.32775e+02
  8.300      2.28352e+02       1.20553e+01       1.33434e+01       5.00250e-04       3.27849e+02
  8.400      2.28316e+02       1.26401e+01       1.35271e+01       4.92921e-04       3.22995e+02
  8.500      2.28236e+02       1.32716e+01       1.36560e+01       4.85792e-04       3.18212e+02
  8.600      2.28124e+02       1.39323e+01       1.37497e+01       4.78830e-04       3.13498e+02
  8.700      2.27995e+02       1.46032e+01       1.38290e+01       4.72001e-04       3.08852e+02
  8.800      2.27864e+02       1.52649e+01       1.39144e+01       4.65272e-04       3.04274e+02
  8.900      2.27743e+02       1.58985e+01       1.40264e+01       4.58614e-04       2.99761e+02
  9.000      2.27646e+02       1.64864e+01       1.41762e+01       4.52003e-04       2.95313e+02
  9.100      2.27573e+02       1.70176e+01       1.43429e+01       4.45437e-04       2.90930e+02
  9.200      2.27523e+02       1.74823e+01       1.44984e+01       4.38919e-04       2.86610e+02
  9.300      2.27496e+02       1.78706e+01       1.46151e+01       4.32452e-04       2.82354e+02
  9.400      2.27492e+02       1.81728e+01       1.46649e+01       4.26038e-04       2.78161e+02
  9.500      2.27510e+02       1.83790e+01       1.46201e+01       4.19679e-04       2.74031e+02
  9.600      2.27545e+02       1.84838e+01       1.44623e+01       4.13384e-04       2.69962e+02
  9.700      2.27588e+02       1.84902e+01       1.41919e+01       4.07169e-04       2.65953e+02
  9.800      2.27626e+02       1.84025e+01       1.38117e+01       4.01055e-04       2.62004e+02
  9.900      2.27650e+02       1.82246e+01       1.33244e+01       3.95059e-04       2.58113e+02
 10.000      2.27646e+02       1.79608e+01       1.27328e+01       3.89196e-04       2.54280e+02
 10.100      2.27605e+02       1.76153e+01       1.20396e+01       3.83484e-04       2.50502e+02
 10.200      2.27518e+02       1.71946e+01       1.12516e+01       3.77931e-04       2.46779e+02
 10.300      2.27392e+02       1.67207e+01       1.03994e+01       3.72518e-04       2.43111e+02
 10.400      2.27244e+02       1.62213e+01       9.52232e+00       3.67219e-04       2.39496e+02
 10.500      2.27088e+02       1.57237e+01       8.65995e+00       3.62006e-04       2.35934e+02
 10.600      2.26939e+02       1.52558e+01       7.85175e+00       3.56854e-04       2.32424e+02
 10.700      2.26812e+02       1.48449e+01       7.13720e+00       3.51741e-04       2.28965e+02
 10.800      2.26722e+02       1.45187e+01       6.55576e+00       3.46642e-04       2.25557e+02
 10.900      2.26681e+02       1.42997e+01       6.14053e+00       3.41542e-04       2.22199e+02
 11.000      2.26684e+02       1.41760e+01       5.88227e+00       3.36452e-04       2.18890e+02
 11.100      2.26717e+02       1.41221e+01       5.75457e+00       3.31394e-04       2.15630e+02
 11.200      2.26766e+02       1.41122e+01       5.73099e+00       3.26387e-04       2.12419e+02
 11.300      2.26818e+02       1.41206e+01       5.78508e+00       3.21451e-04       2.09255e+02
 11.400      2.26860e+02       1.41218e+01       5.89037e+00       3.16605e-04       2.06138e+02
 11.500      2.26878e+02       1.40900e+01       6.02042e+00       3.11865e-04       2.03068e+02
 11.600      2.26859e+02       1.39996e+01       6.14878e+00       3.07246e-04       2.00043e+02
 11.700      2.26792e+02       1.38313e+01       6.25417e+00       3.02760e-04       1.97065e+02
 11.800      2.26681e+02       1.35926e+01       6.33700e+00       2.98398e-04       1.94130e+02
 11.900      2.26533e+02       1.32981e+01       6.40332e+00       2.94147e-04       1.91239e+02
 12.000      2.26353e+02       1.29624e+01       6.45917e+00       2.89994e-04       1.88390e+02
 12.100      2.26149e+02       1.26001e+01       6.51061e+00       2.85928e-04       1.85581e+02
 12.200      2.25927e+02       1.22256e+01       6.56368e+00       2.81939e-04       1.82812e+02
 12.300      2.25694e+02       1.18535e+01       6.62445e+00       2.78015e-04       1.80082e+02
 12.400      2.25457e+02       1.14985e+01       6.69896e+00       2.74146e-04       1.77390e+02
 12.500      2.25222e+02       1.11750e+01       6.79326e+00       2.70323e-04       1.74734e+02
 12.600      2.24994e+02       1.08948e+01       6.91104e+00       2.66539e-04       1.72114e+02
 12.700      2.24776e+02       1.06619e+01       7.04895e+00       2.62793e-04       1.69529e+02
 12.800      2.24567e+02       1.04784e+01       7.20237e+00       2.59083e-04       1.66981e+02
 12.900      2.24370e+02       1.03468e+01       7.36668e+00       2.55410e-04       1.64469e+02
 13.000      2.24183e+02       1.02693e+01       7.53724e+00       2.51772e-04       1.61992e+02
 13.100      2.24009e+02       1.02482e+01       7.70943e+00       2.48171e-04       1.59551e+02
 13.200      2.23849e+02       1.02859e+01       7.87861e+00       2.44604e-04       1.57145e+02
 13.300      2.23702e+02       1.03846e+01       8.04017e+00       2.41073e-04       1.54775e+02
 13.400      2.23571e+02       1.05468e+01       8.18947e+00       2.37577e-04       1.52440e+02
 13.500      2.23455e+02       1.07746e+01       8.32188e+00       2.34114e-04       1.50141e+02
 13.600      2.23355e+02       1.10684e+01       8.43342e+00       2.30686e-04       1.47877e+02
 13.700      2.23270e+02       1.14188e+01       8.52319e+00       2.27293e-04       1.45646e+02
 13.800      2.23198e+02       1.18135e+01       8.59120e+00       2.23937e-04       1.43449e+02
 13.900      2.23137e+02       1.22402e+01       8.63747e+00       2.20617e-04       1.41284e+02
 14.000      2.23085e+02       1.26866e+01       8.66204e+00       2.17335e-04       1.39150e+02
 14.100      2.23040e+02       1.31404e+01       8.66493e+00       2.14092e-04       1.37045e+02
 14.200      2.23001e+02       1.35893e+01       8.64615e+00       2.10888e-04       1.34971e+02
 14.300      2.22964e+02       1.40210e+01       8.60574e+00       2.07725e-04       1.32925e+02
 14.400      2.22929e+02       1.44231e+01       8.54371e+00       2.04602e-04       1.30906e+02
 14.500      2.22893e+02       1.47834e+01       8.46009e+00       2.01521e-04       1.28914e+02
 14.600      2.22855e+02       1.50896e+01       8.35490e+00       1.98483e-04       1.26948e+02
 14.700      2.22813e+02       1.53293e+01       8.22817e+00       1.95486e-04       1.25008e+02
 14.800      2.22764e+02       1.54934e+01       8.08030e+00       1.92533e-04       1.23093e+02
 14.900      2.22709e+02       1.55849e+01       7.91333e+00       1.89624e-04       1.21203e+02
 15.000      2.22648e+02       1.56103e+01       7.72964e+00       1.86759e-04       1.19339e+02
 15.100      2.22581e+02       1.55758e+01       7.53166e+00       1.83939e-04       1.17502e+02
 15.200      2.22508e+02       1.54877e+01       7.32181e+00       1.81165e-04       1.15692e+02
 15.300      2.22430e+02       1.53523e+01       7.10249e+00       1.78437e-04       1.13910e+02
 15.400      2.22346e+02       1.51761e+01       6.87612e+00       1.75756e-04       1.12156e+02
 15.500      2.22257e+02       1.49652e+01       6.64510e+00       1.73122e-04       1.10431e+02
 15.600      2.22162e+02       1.47260e+01       6.41187e+00       1.70536e-04       1.08735e+02
 15.700      2.22063e+02       1.44648e+01       6.17882e+00       1.67997e-04       1.07068e+02
 15.800      2.21959e+02       1.41880e+01       5.94837e+00       1.65506e-04       1.05431e+02
 15.900      2.21850e+02       1.39018e+01       5.72293e+00       1.63063e-04       1.03824e+02
 16.000      2.21736e+02       1.36126e+01       5.50493e+00       1.60669e-04       1.02247e+02
 16.100      2.21618e+02       1.33266e+01       5.29676e+00       1.58323e-04       1.00700e+02
 16.200      2.21496e+02       1.30500e+01       5.10077e+00       1.56025e-04       9.91838e+01
 16.300      2.21370e+02       1.27855e+01       4.91780e+00       1.53774e-04       9.76973e+01
 16.400      2.21239e+02       1.25324e+01       4.74735e+00       1.51568e-04       9.62390e+01
 16.500      2.21105e+02       1.22902e+01       4.58889e+00       1.49405e-04       9.48077e+01
 16.600      2.20966e+02       1.20581e+01       4.44187e+00       1.47282e-04       9.34020e+01
 16.700      2.20823e+02       1.18356e+01       4.30574e+00       1.45198e-04       9.20208e+01
 16.800      2.20676e+02       1.16219e+01       4.17997e+00       1.43150e-04       9.06629e+01
 16.900      2.20526e+02       1.14165e+01       4.06401e+00       1.41137e-04       8.93271e+01
 17.000      2.20371e+02       1.12186e+01       3.95732e+00       1.39158e-04       8.80123e+01
 17.100      2.20212e+02       1.10276e+01       3.85935e+00       1.37209e-04       8.67176e+01
 17.200      2.20050e+02       1.08428e+01       3.76956e+00       1.35291e-04       8.54418e+01
 17.300      2.19884e+02       1.06637e+01       3.68742e+00       1.33400e-04       8.41843e+01
 17.400      2.19713e+02       1.04895e+01       3.61236e+00       1.31536e-04       8.29440e+01
 17.500      2.19540e+02       1.03196e+01       3.54387e+00       1.29698e-04       8.17199e+01
 17.600      2.19362e+02       1.01533e+01       3.48138e+00       1.27883e-04       8.05114e+01
 17.700      2.19180e+02       9.98999e+00       3.42435e+00       1.26092e-04       7.93177e+01
 17.800      2.18995e+02       9.82903e+00       3.37226e+00       1.24321e-04       7.81380e+01
 17.900      2.18807e+02       9.66974e+00       3.32454e+00       1.22571e-04       7.69716e+01
 18.000      2.18614e+02       9.51147e+00       3.28066e+00       1.20840e-04       7.58179e+01
 18.100      2.18418e+02       9.35357e+00       3.24008e+00       1.19127e-04       7.46762e+01
 18.200      2.18219e+02       9.19538e+00       3.20225e+00       1.17432e-04       7.35460e+01
 18.300      2.18016e+02       9.03626e+00       3.16663e+00       1.15752e-04       7.24266e+01
 18.400      2.17809e+02       8.87554e+00       3.13268e+00       1.14088e-04       7.13175e+01
 18.500      2.17599e+02       8.71257e+00       3.09985e+00       1.12438e-04       7.02183e+01
 18.600      2.17386e+02       8.54683e+00       3.06763e+00       1.10801e-04       6.91285e+01
 18.700      2.17169e+02       8.37877e+00       3.03578e+00       1.09179e-04       6.80485e+01
 18.800      2.16951e+02       8.20927e+00       3.00415e+00       1.07571e-04       6.69790e+01
 18.900      2.16731e+02       8.03921e+00       2.97260e+00       1.05978e-04       6.59204e+01
 19.000      2.16510e+02       7.86946e+00       2.94100e+00       1.04401e-04       6.48733e+01
 19.100      2.16290e+02       7.70093e+00       2.90920e+00       1.02840e-04       6.38382e+01
 19.200      2.16070e+02       7.53448e+00       2.87707e+00       1.01296e-04       6.28156e+01
 19.300      2.15851e+02       7.37100e+00       2.84447e+00       9.97688e-05       6.18060e+01
 19.400      2.15635e+02       7.21137e+00       2.81126e+00       9.82591e-05       6.08097e+01
 19.500      2.15421e+02       7.05647e+00       2.77730e+00       9.67671e-05       5.98270e+01
 19.600      2.15211e+02       6.90718e+00       2.74245e+00       9.52935e-05       5.88584e+01
 19.700      2.15005e+02       6.76440e+00       2.70658e+00       9.38382e-05       5.79041e+01
 19.800      2.14804e+02       6.62900e+00       2.66955e+00       9.24018e-05       5.69645e+01
 19.900      2.14608e+02       6.50186e+00       2.63121e+00       9.09844e-05       5.60396e+01
 20.000      2.14419e+02       6.38386e+00       2.59142e+00       8.95862e-05       5.51299e+01
 20.100      2.14237e+02       6.27589e+00       2.55006e+00       8.82075e-05       5.42354e+01
 20.200      2.14063e+02       6.17884e+00       2.50698e+00       8.68484e-05       5.33563e+01
 20.300      2.13897e+02       6.09357e+00       2.46204e+00       8.55091e-05       5.24928e+01
