# Data Source: NASA GEOS5 Near-Real-Time
# Model Time = 2010-02-02 00:00:00
# Location = [  39.7393, -104.9900 ]
# Fields = [ Z(km), T(K), U(m/s), V(m/s), R(g/cm3), P(mbar) ]
# Ground Height = 1.589
  0.000      2.86851e+02       3.30740e+00      -1.45682e+00       1.23090e-03       1.01335e+03
  0.100      2.86178e+02       3.30663e+00      -1.46498e+00       1.21915e-03       1.00133e+03
  0.200      2.85504e+02       3.30589e+00      -1.47078e+00       1.20753e-03       9.89445e+02
  0.300      2.84841e+02       3.30500e+00      -1.49540e+00       1.19596e-03       9.77693e+02
  0.400      2.84201e+02       3.30141e+00      -1.55553e+00       1.18439e-03       9.66058e+02
  0.500      2.83557e+02       3.27278e+00      -1.63143e+00       1.17292e-03       9.54532e+02
  0.600      2.82871e+02       3.19124e+00      -1.68720e+00       1.16169e-03       9.43109e+02
  0.700      2.82160e+02       3.08871e+00      -1.71079e+00       1.15064e-03       9.31790e+02
  0.800      2.81481e+02       3.04092e+00      -1.70812e+00       1.13954e-03       9.20581e+02
  0.900      2.80842e+02       3.05606e+00      -1.67527e+00       1.12837e-03       9.09484e+02
  1.000      2.80186e+02       3.05207e+00      -1.59469e+00       1.11735e-03       8.98498e+02
  1.100      2.79474e+02       2.97439e+00      -1.45869e+00       1.10663e-03       8.87620e+02
  1.200      2.78733e+02       2.85820e+00      -1.28808e+00       1.09611e-03       8.76849e+02
  1.300      2.77998e+02       2.75347e+00      -1.10843e+00       1.08564e-03       8.66184e+02
  1.400      2.77305e+02       2.71018e+00      -9.45283e-01       1.07509e-03       8.55624e+02
  1.500      2.76689e+02       2.77698e+00      -8.23743e-01       1.06431e-03       8.45169e+02
  1.600      2.76153e+02       2.96619e+00      -7.56585e-01       1.05332e-03       8.34819e+02
  1.700      2.75661e+02       3.25020e+00      -7.43018e-01       1.04225e-03       8.24572e+02
  1.800      2.75178e+02       3.59930e+00      -7.81556e-01       1.03124e-03       8.14429e+02
  1.900      2.74667e+02       3.98382e+00      -8.70712e-01       1.02042e-03       8.04390e+02
  2.000      2.74095e+02       4.37451e+00      -1.00853e+00       1.00992e-03       7.94453e+02
  2.100      2.73451e+02       4.75003e+00      -1.18478e+00       9.99764e-04       7.84619e+02
  2.200      2.72749e+02       5.09580e+00      -1.38214e+00       9.89900e-04       7.74884e+02
  2.300      2.72003e+02       5.39746e+00      -1.58308e+00       9.80270e-04       7.65247e+02
  2.400      2.71226e+02       5.64064e+00      -1.77004e+00       9.70820e-04       7.55705e+02
  2.500      2.70432e+02       5.81151e+00      -1.92571e+00       9.61499e-04       7.46257e+02
  2.600      2.69626e+02       5.91664e+00      -2.04177e+00       9.52280e-04       7.36900e+02
  2.700      2.68806e+02       5.98933e+00      -2.12169e+00       9.43174e-04       7.27634e+02
  2.800      2.67968e+02       6.06465e+00      -2.16972e+00       9.34190e-04       7.18456e+02
  2.900      2.67108e+02       6.17771e+00      -2.19012e+00       9.25340e-04       7.09365e+02
  3.000      2.66221e+02       6.36361e+00      -2.18715e+00       9.16635e-04       7.00360e+02
  3.100      2.65307e+02       6.64703e+00      -2.16640e+00       9.08077e-04       6.91438e+02
  3.200      2.64373e+02       7.00577e+00      -2.13951e+00       8.99637e-04       6.82599e+02
  3.300      2.63429e+02       7.40440e+00      -2.11983e+00       8.91278e-04       6.73844e+02
  3.400      2.62487e+02       7.80749e+00      -2.12070e+00       8.82965e-04       6.65170e+02
  3.500      2.61556e+02       8.17959e+00      -2.15547e+00       8.74660e-04       6.56578e+02
  3.600      2.60648e+02       8.48540e+00      -2.23744e+00       8.66330e-04       6.48067e+02
  3.700      2.59770e+02       8.70659e+00      -2.37325e+00       8.57952e-04       6.39636e+02
  3.800      2.58921e+02       8.85990e+00      -2.55578e+00       8.49528e-04       6.31288e+02
  3.900      2.58103e+02       8.96643e+00      -2.77620e+00       8.41062e-04       6.23022e+02
  4.000      2.57315e+02       9.04727e+00      -3.02570e+00       8.32558e-04       6.14839e+02
  4.100      2.56556e+02       9.12351e+00      -3.29546e+00       8.24021e-04       6.06739e+02
  4.200      2.55826e+02       9.21620e+00      -3.57667e+00       8.15454e-04       5.98724e+02
  4.300      2.55124e+02       9.34079e+00      -3.86362e+00       8.06866e-04       5.90793e+02
  4.400      2.54447e+02       9.49853e+00      -4.15834e+00       7.98269e-04       5.82946e+02
  4.500      2.53789e+02       9.68855e+00      -4.46405e+00       7.89679e-04       5.75182e+02
  4.600      2.53148e+02       9.90994e+00      -4.78398e+00       7.81108e-04       5.67502e+02
  4.700      2.52519e+02       1.01618e+01      -5.12135e+00       7.72571e-04       5.59905e+02
  4.800      2.51898e+02       1.04433e+01      -5.47938e+00       7.64081e-04       5.52389e+02
  4.900      2.51281e+02       1.07532e+01      -5.86074e+00       7.55649e-04       5.44956e+02
  5.000      2.50667e+02       1.10882e+01      -6.26201e+00       7.47279e-04       5.37603e+02
  5.100      2.50058e+02       1.14430e+01      -6.67597e+00       7.38969e-04       5.30332e+02
  5.200      2.49453e+02       1.18128e+01      -7.09535e+00       7.30716e-04       5.23142e+02
  5.300      2.48854e+02       1.21924e+01      -7.51286e+00       7.22520e-04       5.16032e+02
  5.400      2.48262e+02       1.25769e+01      -7.92122e+00       7.14379e-04       5.09004e+02
  5.500      2.47678e+02       1.29612e+01      -8.31315e+00       7.06290e-04       5.02055e+02
  5.600      2.47101e+02       1.33409e+01      -8.68172e+00       6.98252e-04       4.95187e+02
  5.700      2.46531e+02       1.37183e+01      -9.02333e+00       6.90271e-04       4.88397e+02
  5.800      2.45964e+02       1.40997e+01      -9.33639e+00       6.82357e-04       4.81686e+02
  5.900      2.45395e+02       1.44913e+01      -9.61932e+00       6.74518e-04       4.75052e+02
  6.000      2.44822e+02       1.48994e+01      -9.87054e+00       6.66763e-04       4.68494e+02
  6.100      2.44241e+02       1.53304e+01      -1.00885e+01       6.59100e-04       4.62011e+02
  6.200      2.43649e+02       1.57905e+01      -1.02716e+01       6.51537e-04       4.55602e+02
  6.300      2.43041e+02       1.62860e+01      -1.04182e+01       6.44082e-04       4.49266e+02
  6.400      2.42416e+02       1.68198e+01      -1.05297e+01       6.36739e-04       4.43002e+02
  6.500      2.41774e+02       1.73856e+01      -1.06152e+01       6.29506e-04       4.36809e+02
  6.600      2.41116e+02       1.79752e+01      -1.06855e+01       6.22377e-04       4.30686e+02
  6.700      2.40442e+02       1.85806e+01      -1.07512e+01       6.15349e-04       4.24633e+02
  6.800      2.39754e+02       1.91936e+01      -1.08228e+01       6.08416e-04       4.18648e+02
  6.900      2.39053e+02       1.98062e+01      -1.09112e+01       6.01576e-04       4.12731e+02
  7.000      2.38340e+02       2.04102e+01      -1.10270e+01       5.94823e-04       4.06881e+02
  7.100      2.37616e+02       2.09976e+01      -1.11807e+01       5.88153e-04       4.01096e+02
  7.200      2.36882e+02       2.15610e+01      -1.13809e+01       5.81564e-04       3.95376e+02
  7.300      2.36139e+02       2.20979e+01      -1.16198e+01       5.75048e-04       3.89721e+02
  7.400      2.35391e+02       2.26082e+01      -1.18829e+01       5.68600e-04       3.84131e+02
  7.500      2.34640e+02       2.30916e+01      -1.21555e+01       5.62212e-04       3.78603e+02
  7.600      2.33888e+02       2.35478e+01      -1.24229e+01       5.55879e-04       3.73139e+02
  7.700      2.33138e+02       2.39768e+01      -1.26703e+01       5.49594e-04       3.67737e+02
  7.800      2.32393e+02       2.43782e+01      -1.28832e+01       5.43352e-04       3.62398e+02
  7.900      2.31654e+02       2.47518e+01      -1.30469e+01       5.37146e-04       3.57120e+02
  8.000      2.30924e+02       2.50975e+01      -1.31467e+01       5.30972e-04       3.51904e+02
  8.100      2.30206e+02       2.54149e+01      -1.31691e+01       5.24825e-04       3.46748e+02
  8.200      2.29500e+02       2.57034e+01      -1.31172e+01       5.18704e-04       3.41652e+02
  8.300      2.28803e+02       2.59618e+01      -1.30055e+01       5.12613e-04       3.36615e+02
  8.400      2.28115e+02       2.61892e+01      -1.28489e+01       5.06557e-04       3.31638e+02
  8.500      2.27433e+02       2.63846e+01      -1.26622e+01       5.00539e-04       3.26718e+02
  8.600      2.26756e+02       2.65468e+01      -1.24602e+01       4.94562e-04       3.21856e+02
  8.700      2.26082e+02       2.66749e+01      -1.22579e+01       4.88630e-04       3.17051e+02
  8.800      2.25410e+02       2.67677e+01      -1.20700e+01       4.82747e-04       3.12301e+02
  8.900      2.24737e+02       2.68243e+01      -1.19114e+01       4.76915e-04       3.07608e+02
  9.000      2.24062e+02       2.68436e+01      -1.17970e+01       4.71138e-04       3.02970e+02
  9.100      2.23384e+02       2.68246e+01      -1.17412e+01       4.65418e-04       2.98386e+02
  9.200      2.22706e+02       2.67684e+01      -1.17475e+01       4.59750e-04       2.93856e+02
  9.300      2.22037e+02       2.66794e+01      -1.18022e+01       4.54114e-04       2.89382e+02
  9.400      2.21388e+02       2.65619e+01      -1.18904e+01       4.48493e-04       2.84965e+02
  9.500      2.20770e+02       2.64207e+01      -1.19972e+01       4.42868e-04       2.80605e+02
  9.600      2.20192e+02       2.62601e+01      -1.21078e+01       4.37222e-04       2.76303e+02
  9.700      2.19667e+02       2.60847e+01      -1.22072e+01       4.31539e-04       2.72061e+02
  9.800      2.19203e+02       2.58991e+01      -1.22806e+01       4.25802e-04       2.67878e+02
  9.900      2.18813e+02       2.57077e+01      -1.23131e+01       4.19998e-04       2.63755e+02
 10.000      2.18505e+02       2.55152e+01      -1.22898e+01       4.14111e-04       2.59693e+02
 10.100      2.18291e+02       2.53259e+01      -1.21958e+01       4.08131e-04       2.55692e+02
 10.200      2.18182e+02       2.51445e+01      -1.20162e+01       4.02045e-04       2.51753e+02
 10.300      2.18186e+02       2.49753e+01      -1.17368e+01       3.95845e-04       2.47876e+02
 10.400      2.18303e+02       2.48186e+01      -1.13563e+01       3.89544e-04       2.44060e+02
 10.500      2.18519e+02       2.46716e+01      -1.08844e+01       3.83172e-04       2.40306e+02
 10.600      2.18822e+02       2.45310e+01      -1.03315e+01       3.76759e-04       2.36612e+02
 10.700      2.19199e+02       2.43937e+01      -9.70778e+00       3.70336e-04       2.32979e+02
 10.800      2.19637e+02       2.42567e+01      -9.02345e+00       3.63927e-04       2.29405e+02
 10.900      2.20124e+02       2.41167e+01      -8.28878e+00       3.57560e-04       2.25891e+02
 11.000      2.20646e+02       2.39708e+01      -7.51398e+00       3.51256e-04       2.22435e+02
 11.100      2.21192e+02       2.38158e+01      -6.70932e+00       3.45038e-04       2.19037e+02
 11.200      2.21747e+02       2.36486e+01      -5.88504e+00       3.38926e-04       2.15697e+02
 11.300      2.22299e+02       2.34660e+01      -5.05135e+00       3.32938e-04       2.12414e+02
 11.400      2.22836e+02       2.32649e+01      -4.21853e+00       3.27090e-04       2.09187e+02
 11.500      2.23344e+02       2.30423e+01      -3.39677e+00       3.21399e-04       2.06016e+02
 11.600      2.23811e+02       2.27950e+01      -2.59635e+00       3.15878e-04       2.02900e+02
 11.700      2.24224e+02       2.25198e+01      -1.82749e+00       3.10539e-04       1.99839e+02
 11.800      2.24573e+02       2.22150e+01      -1.09838e+00       3.05390e-04       1.96832e+02
 11.900      2.24860e+02       2.18830e+01      -4.10198e-01       3.00422e-04       1.93876e+02
 12.000      2.25086e+02       2.15272e+01       2.37397e-01       2.95622e-04       1.90971e+02
 12.100      2.25255e+02       2.11508e+01       8.44721e-01       2.90981e-04       1.88114e+02
 12.200      2.25370e+02       2.07573e+01       1.41209e+00       2.86486e-04       1.85303e+02
 12.300      2.25434e+02       2.03500e+01       1.93984e+00       2.82130e-04       1.82537e+02
 12.400      2.25450e+02       1.99323e+01       2.42829e+00       2.77902e-04       1.79814e+02
 12.500      2.25421e+02       1.95075e+01       2.87777e+00       2.73794e-04       1.77133e+02
 12.600      2.25349e+02       1.90790e+01       3.28859e+00       2.69797e-04       1.74492e+02
 12.700      2.25239e+02       1.86502e+01       3.66109e+00       2.65904e-04       1.71890e+02
 12.800      2.25093e+02       1.82243e+01       3.99558e+00       2.62107e-04       1.69325e+02
 12.900      2.24913e+02       1.78049e+01       4.29240e+00       2.58399e-04       1.66796e+02
 13.000      2.24703e+02       1.73952e+01       4.55186e+00       2.54772e-04       1.64302e+02
 13.100      2.24466e+02       1.69986e+01       4.77429e+00       2.51222e-04       1.61842e+02
 13.200      2.24205e+02       1.66184e+01       4.96001e+00       2.47742e-04       1.59414e+02
 13.300      2.23922e+02       1.62581e+01       5.10936e+00       2.44325e-04       1.57017e+02
 13.400      2.23622e+02       1.59209e+01       5.22264e+00       2.40966e-04       1.54651e+02
 13.500      2.23306e+02       1.56103e+01       5.30019e+00       2.37660e-04       1.52313e+02
 13.600      2.22978e+02       1.53295e+01       5.34233e+00       2.34402e-04       1.50005e+02
 13.700      2.22640e+02       1.50811e+01       5.34971e+00       2.31187e-04       1.47723e+02
 13.800      2.22295e+02       1.48635e+01       5.32425e+00       2.28013e-04       1.45469e+02
 13.900      2.21943e+02       1.46744e+01       5.26821e+00       2.24880e-04       1.43243e+02
 14.000      2.21585e+02       1.45113e+01       5.18384e+00       2.21787e-04       1.41045e+02
 14.100      2.21224e+02       1.43720e+01       5.07340e+00       2.18731e-04       1.38875e+02
 14.200      2.20859e+02       1.42540e+01       4.93914e+00       2.15712e-04       1.36732e+02
 14.300      2.20493e+02       1.41549e+01       4.78332e+00       2.12729e-04       1.34618e+02
 14.400      2.20127e+02       1.40723e+01       4.60818e+00       2.09780e-04       1.32532e+02
 14.500      2.19762e+02       1.40038e+01       4.41599e+00       2.06866e-04       1.30474e+02
 14.600      2.19400e+02       1.39471e+01       4.20900e+00       2.03984e-04       1.28444e+02
 14.700      2.19041e+02       1.38997e+01       3.98946e+00       2.01134e-04       1.26442e+02
 14.800      2.18688e+02       1.38593e+01       3.75962e+00       1.98315e-04       1.24469e+02
 14.900      2.18340e+02       1.38234e+01       3.52175e+00       1.95526e-04       1.22524e+02
 15.000      2.18001e+02       1.37897e+01       3.27809e+00       1.92766e-04       1.20606e+02
 15.100      2.17670e+02       1.37557e+01       3.03089e+00       1.90035e-04       1.18717e+02
 15.200      2.17349e+02       1.37192e+01       2.78242e+00       1.87331e-04       1.16855e+02
 15.300      2.17040e+02       1.36776e+01       2.53493e+00       1.84654e-04       1.15022e+02
 15.400      2.16743e+02       1.36287e+01       2.29066e+00       1.82003e-04       1.13216e+02
 15.500      2.16461e+02       1.35699e+01       2.05188e+00       1.79377e-04       1.11437e+02
 15.600      2.16194e+02       1.34990e+01       1.82084e+00       1.76777e-04       1.09686e+02
 15.700      2.15944e+02       1.34135e+01       1.59979e+00       1.74200e-04       1.07962e+02
 15.800      2.15712e+02       1.33110e+01       1.39099e+00       1.71647e-04       1.06265e+02
 15.900      2.15499e+02       1.31892e+01       1.19669e+00       1.69117e-04       1.04596e+02
 16.000      2.15306e+02       1.30456e+01       1.01915e+00       1.66609e-04       1.02952e+02
 16.100      2.15136e+02       1.28779e+01       8.60610e-01       1.64123e-04       1.01336e+02
 16.200      2.14989e+02       1.26837e+01       7.23334e-01       1.61658e-04       9.97459e+01
 16.300      2.14865e+02       1.24616e+01       6.08598e-01       1.59215e-04       9.81819e+01
 16.400      2.14764e+02       1.22134e+01       5.15244e-01       1.56794e-04       9.66435e+01
 16.500      2.14684e+02       1.19409e+01       4.41753e-01       1.54396e-04       9.51301e+01
 16.600      2.14624e+02       1.16461e+01       3.86599e-01       1.52022e-04       9.36412e+01
 16.700      2.14582e+02       1.13311e+01       3.48260e-01       1.49673e-04       9.21764e+01
 16.800      2.14558e+02       1.09978e+01       3.25211e-01       1.47350e-04       9.07352e+01
 16.900      2.14548e+02       1.06482e+01       3.15927e-01       1.45053e-04       8.93170e+01
 17.000      2.14553e+02       1.02843e+01       3.18886e-01       1.42783e-04       8.79215e+01
 17.100      2.14571e+02       9.90806e+00       3.32563e-01       1.40542e-04       8.65481e+01
 17.200      2.14600e+02       9.52152e+00       3.55435e-01       1.38328e-04       8.51964e+01
 17.300      2.14638e+02       9.12666e+00       3.85976e-01       1.36144e-04       8.38661e+01
 17.400      2.14685e+02       8.72544e+00       4.22665e-01       1.33989e-04       8.25566e+01
 17.500      2.14739e+02       8.31986e+00       4.63976e-01       1.31863e-04       8.12676e+01
 17.600      2.14799e+02       7.91191e+00       5.08386e-01       1.29768e-04       7.99987e+01
 17.700      2.14863e+02       7.50358e+00       5.54372e-01       1.27704e-04       7.87495e+01
 17.800      2.14930e+02       7.09687e+00       6.00407e-01       1.25671e-04       7.75196e+01
 17.900      2.14997e+02       6.69374e+00       6.44971e-01       1.23668e-04       7.63087e+01
 18.000      2.15065e+02       6.29620e+00       6.86537e-01       1.21698e-04       7.51163e+01
 18.100      2.15132e+02       5.90623e+00       7.23583e-01       1.19758e-04       7.39422e+01
 18.200      2.15195e+02       5.52582e+00       7.54584e-01       1.17851e-04       7.27859e+01
 18.300      2.15254e+02       5.15697e+00       7.78017e-01       1.15976e-04       7.16472e+01
 18.400      2.15307e+02       4.80165e+00       7.92358e-01       1.14132e-04       7.05258e+01
 18.500      2.15354e+02       4.46177e+00       7.96140e-01       1.12320e-04       6.94213e+01
 18.600      2.15392e+02       4.13754e+00       7.89079e-01       1.10540e-04       6.83334e+01
 18.700      2.15424e+02       3.82760e+00       7.71993e-01       1.08791e-04       6.72621e+01
 18.800      2.15450e+02       3.53050e+00       7.45746e-01       1.07073e-04       6.62073e+01
 18.900      2.15470e+02       3.24481e+00       7.11197e-01       1.05383e-04       6.51688e+01
 19.000      2.15485e+02       2.96909e+00       6.69209e-01       1.03722e-04       6.41465e+01
 19.100      2.15497e+02       2.70191e+00       6.20643e-01       1.02090e-04       6.31401e+01
 19.200      2.15504e+02       2.44184e+00       5.66361e-01       1.00485e-04       6.21497e+01
 19.300      2.15509e+02       2.18743e+00       5.07225e-01       9.89066e-05       6.11749e+01
 19.400      2.15512e+02       1.93726e+00       4.44095e-01       9.73546e-05       6.02158e+01
 19.500      2.15514e+02       1.68988e+00       3.77834e-01       9.58283e-05       5.92721e+01
 19.600      2.15514e+02       1.44387e+00       3.09303e-01       9.43270e-05       5.83436e+01
 19.700      2.15514e+02       1.19778e+00       2.39363e-01       9.28502e-05       5.74303e+01
 19.800      2.15515e+02       9.50193e-01       1.68878e-01       9.13974e-05       5.65319e+01
 19.900      2.15517e+02       6.99656e-01       9.87067e-02       8.99681e-05       5.56483e+01
 20.000      2.15521e+02       4.44741e-01       2.97117e-02       8.85616e-05       5.47794e+01
 20.100      2.15528e+02       1.84012e-01      -3.72453e-02       8.71776e-05       5.39249e+01
 20.200      2.15537e+02      -8.39642e-02      -1.01303e-01       8.58155e-05       5.30848e+01
 20.300      2.15551e+02      -3.60619e-01      -1.61598e-01       8.44749e-05       5.22588e+01
