# Data Source: NASA GEOS5 Near-Real-Time
# Model Time = 2010-02-01 18:00:00
# Location = [  39.7393, -104.9900 ]
# Fields = [ Z(km), T(K), U(m/s), V(m/s), R(g/cm3), P(mbar) ]
# Ground Height = 1.589
  0.000      2.87594e+02       2.75323e+00      -9.90596e-01       1.22469e-03       1.01085e+03
  0.100      2.86956e+02       2.77558e+00      -1.00782e+00       1.21291e-03       9.98905e+02
  0.200      2.86316e+02       2.79651e+00      -1.02562e+00       1.20125e-03       9.87096e+02
  0.300      2.85664e+02       2.80076e+00      -1.05022e+00       1.18973e-03       9.75407e+02
  0.400      2.84994e+02       2.77598e+00      -1.08711e+00       1.17837e-03       9.63823e+02
  0.500      2.84317e+02       2.72295e+00      -1.13849e+00       1.16711e-03       9.52347e+02
  0.600      2.83651e+02       2.64707e+00      -1.20127e+00       1.15589e-03       9.40987e+02
  0.700      2.82992e+02       2.56091e+00      -1.23935e+00       1.14473e-03       9.29738e+02
  0.800      2.82329e+02       2.47987e+00      -1.20552e+00       1.13367e-03       9.18595e+02
  0.900      2.81665e+02       2.41117e+00      -1.11768e+00       1.12269e-03       9.07555e+02
  1.000      2.81013e+02       2.35530e+00      -1.04671e+00       1.11173e-03       8.96620e+02
  1.100      2.80382e+02       2.31092e+00      -1.03302e+00       1.10077e-03       8.85791e+02
  1.200      2.79765e+02       2.27399e+00      -1.06414e+00       1.08985e-03       8.75069e+02
  1.300      2.79154e+02       2.24023e+00      -1.12267e+00       1.07899e-03       8.64456e+02
  1.400      2.78541e+02       2.20537e+00      -1.19119e+00       1.06822e-03       8.53953e+02
  1.500      2.77919e+02       2.16567e+00      -1.25303e+00       1.05759e-03       8.43559e+02
  1.600      2.77278e+02       2.12490e+00      -1.30174e+00       1.04711e-03       8.33274e+02
  1.700      2.76609e+02       2.09228e+00      -1.33832e+00       1.03681e-03       8.23091e+02
  1.800      2.75902e+02       2.07718e+00      -1.36394e+00       1.02673e-03       8.13007e+02
  1.900      2.75147e+02       2.08897e+00      -1.37975e+00       1.01690e-03       8.03017e+02
  2.000      2.74336e+02       2.13650e+00      -1.38689e+00       1.00733e-03       7.93117e+02
  2.100      2.73476e+02       2.22352e+00      -1.38614e+00       9.98000e-04       7.83306e+02
  2.200      2.72582e+02       2.35074e+00      -1.37805e+00       9.88844e-04       7.73585e+02
  2.300      2.71672e+02       2.51879e+00      -1.36320e+00       9.79805e-04       7.63954e+02
  2.400      2.70762e+02       2.72834e+00      -1.34214e+00       9.70824e-04       7.54414e+02
  2.500      2.69866e+02       2.98009e+00      -1.31614e+00       9.61847e-04       7.44964e+02
  2.600      2.68986e+02       3.27574e+00      -1.30022e+00       9.52868e-04       7.35606e+02
  2.700      2.68112e+02       3.61792e+00      -1.32200e+00       9.43927e-04       7.26335e+02
  2.800      2.67231e+02       4.00927e+00      -1.40957e+00       9.35063e-04       7.17150e+02
  2.900      2.66332e+02       4.45244e+00      -1.59100e+00       9.26313e-04       7.08049e+02
  3.000      2.65403e+02       4.95009e+00      -1.89437e+00       9.17714e-04       6.99030e+02
  3.100      2.64440e+02       5.49647e+00      -2.33789e+00       9.09278e-04       6.90091e+02
  3.200      2.63462e+02       6.06151e+00      -2.91119e+00       9.00942e-04       6.81234e+02
  3.300      2.62490e+02       6.61076e+00      -3.59873e+00       8.92630e-04       6.72460e+02
  3.400      2.61548e+02       7.10974e+00      -4.38496e+00       8.84269e-04       6.63770e+02
  3.500      2.60657e+02       7.52399e+00      -5.25435e+00       8.75787e-04       6.55164e+02
  3.600      2.59840e+02       7.81965e+00      -6.19110e+00       8.67116e-04       6.46644e+02
  3.700      2.59103e+02       7.98681e+00      -7.16902e+00       8.58240e-04       6.38210e+02
  3.800      2.58432e+02       8.04706e+00      -8.14824e+00       8.49215e-04       6.29863e+02
  3.900      2.57811e+02       8.02412e+00      -9.08795e+00       8.40097e-04       6.21603e+02
  4.000      2.57225e+02       7.94173e+00      -9.94737e+00       8.30941e-04       6.13430e+02
  4.100      2.56657e+02       7.82364e+00      -1.06857e+01       8.21803e-04       6.05345e+02
  4.200      2.56093e+02       7.69343e+00      -1.12625e+01       8.12733e-04       5.97349e+02
  4.300      2.55522e+02       7.56561e+00      -1.16616e+01       8.03766e-04       5.89440e+02
  4.400      2.54939e+02       7.44065e+00      -1.19043e+01       7.94912e-04       5.81618e+02
  4.500      2.54343e+02       7.31780e+00      -1.20151e+01       7.86178e-04       5.73882e+02
  4.600      2.53730e+02       7.19629e+00      -1.20186e+01       7.77571e-04       5.66231e+02
  4.700      2.53097e+02       7.07538e+00      -1.19394e+01       7.69097e-04       5.58664e+02
  4.800      2.52443e+02       6.95431e+00      -1.18019e+01       7.60763e-04       5.51181e+02
  4.900      2.51763e+02       6.83304e+00      -1.16291e+01       7.52573e-04       5.43780e+02
  5.000      2.51062e+02       6.71614e+00      -1.14337e+01       7.44517e-04       5.36459e+02
  5.100      2.50342e+02       6.61003e+00      -1.12241e+01       7.36581e-04       5.29219e+02
  5.200      2.49607e+02       6.52113e+00      -1.10088e+01       7.28749e-04       5.22056e+02
  5.300      2.48862e+02       6.45585e+00      -1.07962e+01       7.21009e-04       5.14969e+02
  5.400      2.48110e+02       6.42063e+00      -1.05948e+01       7.13347e-04       5.07958e+02
  5.500      2.47356e+02       6.42189e+00      -1.04130e+01       7.05750e-04       5.01020e+02
  5.600      2.46603e+02       6.46629e+00      -1.02594e+01       6.98205e-04       4.94155e+02
  5.700      2.45854e+02       6.56210e+00      -1.01417e+01       6.90705e-04       4.87362e+02
  5.800      2.45112e+02       6.71819e+00      -1.00677e+01       6.83243e-04       4.80642e+02
  5.900      2.44380e+02       6.94345e+00      -1.00452e+01       6.75812e-04       4.73994e+02
  6.000      2.43660e+02       7.24674e+00      -1.00818e+01       6.68408e-04       4.67419e+02
  6.100      2.42955e+02       7.63694e+00      -1.01854e+01       6.61022e-04       4.60918e+02
  6.200      2.42268e+02       8.12293e+00      -1.03635e+01       6.53651e-04       4.54489e+02
  6.300      2.41601e+02       8.71349e+00      -1.06239e+01       6.46288e-04       4.48132e+02
  6.400      2.40954e+02       9.40960e+00      -1.09658e+01       6.38936e-04       4.41849e+02
  6.500      2.40323e+02       1.01989e+01      -1.13736e+01       6.31609e-04       4.35637e+02
  6.600      2.39700e+02       1.10675e+01      -1.18306e+01       6.24324e-04       4.29497e+02
  6.700      2.39080e+02       1.20019e+01      -1.23201e+01       6.17097e-04       4.23428e+02
  6.800      2.38458e+02       1.29881e+01      -1.28250e+01       6.09941e-04       4.17428e+02
  6.900      2.37826e+02       1.40126e+01      -1.33287e+01       6.02872e-04       4.11497e+02
  7.000      2.37180e+02       1.50616e+01      -1.38144e+01       5.95902e-04       4.05635e+02
  7.100      2.36513e+02       1.61214e+01      -1.42651e+01       5.89046e-04       3.99841e+02
  7.200      2.35822e+02       1.71785e+01      -1.46674e+01       5.82310e-04       3.94113e+02
  7.300      2.35111e+02       1.82209e+01      -1.50208e+01       5.75682e-04       3.88452e+02
  7.400      2.34386e+02       1.92368e+01      -1.53274e+01       5.69145e-04       3.82857e+02
  7.500      2.33653e+02       2.02144e+01      -1.55892e+01       5.62684e-04       3.77326e+02
  7.600      2.32918e+02       2.11420e+01      -1.58086e+01       5.56281e-04       3.71860e+02
  7.700      2.32188e+02       2.20077e+01      -1.59878e+01       5.49922e-04       3.66456e+02
  7.800      2.31468e+02       2.27998e+01      -1.61288e+01       5.43592e-04       3.61115e+02
  7.900      2.30764e+02       2.35064e+01      -1.62340e+01       5.37277e-04       3.55835e+02
  8.000      2.30084e+02       2.41159e+01      -1.63054e+01       5.30964e-04       3.50617e+02
  8.100      2.29431e+02       2.46193e+01      -1.63447e+01       5.24641e-04       3.45459e+02
  8.200      2.28807e+02       2.50253e+01      -1.63494e+01       5.18310e-04       3.40362e+02
  8.300      2.28209e+02       2.53486e+01      -1.63159e+01       5.11979e-04       3.35325e+02
  8.400      2.27635e+02       2.56037e+01      -1.62405e+01       5.05654e-04       3.30350e+02
  8.500      2.27084e+02       2.58055e+01      -1.61195e+01       4.99342e-04       3.25436e+02
  8.600      2.26553e+02       2.59687e+01      -1.59493e+01       4.93047e-04       3.20583e+02
  8.700      2.26042e+02       2.61078e+01      -1.57261e+01       4.86777e-04       3.15792e+02
  8.800      2.25548e+02       2.62376e+01      -1.54462e+01       4.80537e-04       3.11062e+02
  8.900      2.25069e+02       2.63729e+01      -1.51060e+01       4.74333e-04       3.06395e+02
  9.000      2.24604e+02       2.65282e+01      -1.47018e+01       4.68169e-04       3.01789e+02
  9.100      2.24152e+02       2.67175e+01      -1.42303e+01       4.62051e-04       2.97244e+02
  9.200      2.23713e+02       2.69439e+01      -1.36954e+01       4.55974e-04       2.92761e+02
  9.300      2.23295e+02       2.72018e+01      -1.31059e+01       4.49928e-04       2.88340e+02
  9.400      2.22903e+02       2.74859e+01      -1.24710e+01       4.43903e-04       2.83979e+02
  9.500      2.22543e+02       2.77905e+01      -1.17997e+01       4.37891e-04       2.79680e+02
  9.600      2.22219e+02       2.81101e+01      -1.11012e+01       4.31882e-04       2.75441e+02
  9.700      2.21938e+02       2.84392e+01      -1.03846e+01       4.25869e-04       2.71262e+02
  9.800      2.21705e+02       2.87722e+01      -9.65899e+00       4.19844e-04       2.67144e+02
  9.900      2.21526e+02       2.91036e+01      -8.93344e+00       4.13800e-04       2.63085e+02
 10.000      2.21406e+02       2.94278e+01      -8.21706e+00       4.07729e-04       2.59085e+02
 10.100      2.21351e+02       2.97394e+01      -7.51895e+00       4.01627e-04       2.55145e+02
 10.200      2.21367e+02       3.00327e+01      -6.84823e+00       3.95489e-04       2.51263e+02
 10.300      2.21458e+02       3.03024e+01      -6.21343e+00       3.89310e-04       2.47439e+02
 10.400      2.21621e+02       3.05444e+01      -5.61686e+00       3.83103e-04       2.43674e+02
 10.500      2.21847e+02       3.07557e+01      -5.05682e+00       3.76888e-04       2.39966e+02
 10.600      2.22128e+02       3.09331e+01      -4.53157e+00       3.70687e-04       2.36315e+02
 10.700      2.22453e+02       3.10735e+01      -4.03935e+00       3.64518e-04       2.32723e+02
 10.800      2.22814e+02       3.11740e+01      -3.57839e+00       3.58397e-04       2.29187e+02
 10.900      2.23203e+02       3.12313e+01      -3.14696e+00       3.52343e-04       2.25708e+02
 11.000      2.23609e+02       3.12424e+01      -2.74329e+00       3.46370e-04       2.22286e+02
 11.100      2.24025e+02       3.12041e+01      -2.36563e+00       3.40492e-04       2.18920e+02
 11.200      2.24441e+02       3.11135e+01      -2.01223e+00       3.34723e-04       2.15610e+02
 11.300      2.24848e+02       3.09674e+01      -1.68133e+00       3.29074e-04       2.12356e+02
 11.400      2.25237e+02       3.07627e+01      -1.37117e+00       3.23557e-04       2.09157e+02
 11.500      2.25599e+02       3.04963e+01      -1.08001e+00       3.18180e-04       2.06012e+02
 11.600      2.25926e+02       3.01652e+01      -8.06082e-01       3.12955e-04       2.02922e+02
 11.700      2.26207e+02       2.97662e+01      -5.47642e-01       3.07889e-04       1.99886e+02
 11.800      2.26438e+02       2.92980e+01      -3.03138e-01       3.02986e-04       1.96903e+02
 11.900      2.26617e+02       2.87657e+01      -7.17729e-02       2.98239e-04       1.93972e+02
 12.000      2.26747e+02       2.81754e+01       1.47092e-01       2.93640e-04       1.91090e+02
 12.100      2.26831e+02       2.75337e+01       3.54088e-01       2.89177e-04       1.88256e+02
 12.200      2.26870e+02       2.68469e+01       5.49849e-01       2.84844e-04       1.85467e+02
 12.300      2.26868e+02       2.61214e+01       7.35012e-01       2.80632e-04       1.82723e+02
 12.400      2.26826e+02       2.53635e+01       9.10208e-01       2.76534e-04       1.80021e+02
 12.500      2.26746e+02       2.45796e+01       1.07608e+00       2.72542e-04       1.77360e+02
 12.600      2.26632e+02       2.37762e+01       1.23325e+00       2.68649e-04       1.74738e+02
 12.700      2.26485e+02       2.29595e+01       1.38236e+00       2.64849e-04       1.72155e+02
 12.800      2.26307e+02       2.21360e+01       1.52404e+00       2.61136e-04       1.69608e+02
 12.900      2.26101e+02       2.13119e+01       1.65893e+00       2.57503e-04       1.67096e+02
 13.000      2.25869e+02       2.04938e+01       1.78766e+00       2.53945e-04       1.64618e+02
 13.100      2.25613e+02       1.96879e+01       1.91087e+00       2.50456e-04       1.62173e+02
 13.200      2.25336e+02       1.89007e+01       2.02919e+00       2.47032e-04       1.59759e+02
 13.300      2.25040e+02       1.81384e+01       2.14325e+00       2.43667e-04       1.57376e+02
 13.400      2.24728e+02       1.74076e+01       2.25369e+00       2.40357e-04       1.55022e+02
 13.500      2.24400e+02       1.67145e+01       2.36115e+00       2.37097e-04       1.52697e+02
 13.600      2.24060e+02       1.60656e+01       2.46625e+00       2.33883e-04       1.50399e+02
 13.700      2.23711e+02       1.54663e+01       2.56955e+00       2.30710e-04       1.48127e+02
 13.800      2.23352e+02       1.49164e+01       2.67098e+00       2.27578e-04       1.45882e+02
 13.900      2.22986e+02       1.44134e+01       2.77021e+00       2.24485e-04       1.43664e+02
 14.000      2.22614e+02       1.39546e+01       2.86692e+00       2.21430e-04       1.41472e+02
 14.100      2.22237e+02       1.35374e+01       2.96078e+00       2.18412e-04       1.39308e+02
 14.200      2.21856e+02       1.31592e+01       3.05149e+00       2.15431e-04       1.37170e+02
 14.300      2.21472e+02       1.28174e+01       3.13870e+00       2.12484e-04       1.35060e+02
 14.400      2.21086e+02       1.25093e+01       3.22210e+00       2.09572e-04       1.32977e+02
 14.500      2.20700e+02       1.22324e+01       3.30137e+00       2.06693e-04       1.30921e+02
 14.600      2.20314e+02       1.19839e+01       3.37618e+00       2.03847e-04       1.28893e+02
 14.700      2.19930e+02       1.17614e+01       3.44621e+00       2.01033e-04       1.26892e+02
 14.800      2.19549e+02       1.15621e+01       3.51113e+00       1.98250e-04       1.24919e+02
 14.900      2.19172e+02       1.13834e+01       3.57063e+00       1.95497e-04       1.22973e+02
 15.000      2.18801e+02       1.12228e+01       3.62438e+00       1.92774e-04       1.21054e+02
 15.100      2.18435e+02       1.10777e+01       3.67205e+00       1.90080e-04       1.19163e+02
 15.200      2.18078e+02       1.09453e+01       3.71333e+00       1.87413e-04       1.17299e+02
 15.300      2.17729e+02       1.08231e+01       3.74789e+00       1.84774e-04       1.15462e+02
 15.400      2.17390e+02       1.07085e+01       3.77541e+00       1.82162e-04       1.13653e+02
 15.500      2.17062e+02       1.05988e+01       3.79556e+00       1.79576e-04       1.11870e+02
 15.600      2.16746e+02       1.04914e+01       3.80802e+00       1.77015e-04       1.10114e+02
 15.700      2.16444e+02       1.03837e+01       3.81246e+00       1.74480e-04       1.08386e+02
 15.800      2.16156e+02       1.02732e+01       3.80858e+00       1.71969e-04       1.06684e+02
 15.900      2.15883e+02       1.01571e+01       3.79603e+00       1.69481e-04       1.05008e+02
 16.000      2.15628e+02       1.00328e+01       3.77451e+00       1.67017e-04       1.03359e+02
 16.100      2.15390e+02       9.89783e+00       3.74368e+00       1.64576e-04       1.01736e+02
 16.200      2.15172e+02       9.74943e+00       3.70322e+00       1.62157e-04       1.00139e+02
 16.300      2.14974e+02       9.58551e+00       3.65293e+00       1.59760e-04       9.85681e+01
 16.400      2.14795e+02       9.40636e+00       3.59328e+00       1.57386e-04       9.70224e+01
 16.500      2.14635e+02       9.21308e+00       3.52494e+00       1.55034e-04       9.55016e+01
 16.600      2.14493e+02       9.00680e+00       3.44857e+00       1.52706e-04       9.40052e+01
 16.700      2.14369e+02       8.78861e+00       3.36486e+00       1.50401e-04       9.25328e+01
 16.800      2.14261e+02       8.55962e+00       3.27446e+00       1.48121e-04       9.10839e+01
 16.900      2.14169e+02       8.32093e+00       3.17806e+00       1.45864e-04       8.96579e+01
 17.000      2.14093e+02       8.07366e+00       3.07633e+00       1.43633e-04       8.82545e+01
 17.100      2.14030e+02       7.81889e+00       2.96993e+00       1.41426e-04       8.68733e+01
 17.200      2.13981e+02       7.55775e+00       2.85954e+00       1.39245e-04       8.55138e+01
 17.300      2.13944e+02       7.29135e+00       2.74584e+00       1.37089e-04       8.41756e+01
 17.400      2.13920e+02       7.02077e+00       2.62949e+00       1.34960e-04       8.28583e+01
 17.500      2.13906e+02       6.74713e+00       2.51116e+00       1.32856e-04       8.15616e+01
 17.600      2.13903e+02       6.47153e+00       2.39153e+00       1.30778e-04       8.02850e+01
 17.700      2.13910e+02       6.19508e+00       2.27128e+00       1.28727e-04       7.90282e+01
 17.800      2.13926e+02       5.91890e+00       2.15106e+00       1.26702e-04       7.77908e+01
 17.900      2.13949e+02       5.64407e+00       2.03156e+00       1.24704e-04       7.65724e+01
 18.000      2.13980e+02       5.37171e+00       1.91344e+00       1.22732e-04       7.53727e+01
 18.100      2.14017e+02       5.10293e+00       1.79739e+00       1.20788e-04       7.41914e+01
 18.200      2.14061e+02       4.83882e+00       1.68406e+00       1.18870e-04       7.30282e+01
 18.300      2.14109e+02       4.58051e+00       1.57413e+00       1.16979e-04       7.18826e+01
 18.400      2.14161e+02       4.32908e+00       1.46828e+00       1.15115e-04       7.07545e+01
 18.500      2.14217e+02       4.08563e+00       1.36717e+00       1.13278e-04       6.96434e+01
 18.600      2.14275e+02       3.85044e+00       1.27109e+00       1.11467e-04       6.85491e+01
 18.700      2.14337e+02       3.62246e+00       1.17975e+00       1.09684e-04       6.74715e+01
 18.800      2.14401e+02       3.40053e+00       1.09280e+00       1.07927e-04       6.64106e+01
 18.900      2.14467e+02       3.18348e+00       1.00988e+00       1.06196e-04       6.53660e+01
 19.000      2.14535e+02       2.97016e+00       9.30642e-01       1.04492e-04       6.43376e+01
 19.100      2.14606e+02       2.75939e+00       8.54737e-01       1.02815e-04       6.33254e+01
 19.200      2.14678e+02       2.55003e+00       7.81813e-01       1.01163e-04       6.23292e+01
 19.300      2.14753e+02       2.34090e+00       7.11519e-01       9.95371e-05       6.13488e+01
 19.400      2.14829e+02       2.13085e+00       6.43503e-01       9.79372e-05       6.03840e+01
 19.500      2.14906e+02       1.91872e+00       5.77414e-01       9.63628e-05       5.94347e+01
 19.600      2.14985e+02       1.70333e+00       5.12901e-01       9.48139e-05       5.85008e+01
 19.700      2.15065e+02       1.48354e+00       4.49614e-01       9.32902e-05       5.75820e+01
 19.800      2.15146e+02       1.25818e+00       3.87201e-01       9.17915e-05       5.66783e+01
 19.900      2.15227e+02       1.02608e+00       3.25309e-01       9.03176e-05       5.57894e+01
 20.000      2.15310e+02       7.86082e-01       2.63589e-01       8.88682e-05       5.49151e+01
 20.100      2.15393e+02       5.37030e-01       2.01689e-01       8.74433e-05       5.40554e+01
 20.200      2.15476e+02       2.77759e-01       1.39258e-01       8.60425e-05       5.32101e+01
 20.300      2.15560e+02       7.11311e-03       7.59457e-02       8.46656e-05       5.23789e+01
