# Data Source: NASA GEOS5 Near-Real-Time
# Model Time = 2010-02-07 18:00:00
# Location = [  39.7393, -104.9900 ]
# Fields = [ Z(km), T(K), U(m/s), V(m/s), R(g/cm3), P(mbar) ]
# Ground Height = 1.589
  0.000      2.82518e+02      -3.92873e+00      -1.07404e+00       1.25180e-03       1.01499e+03
  0.100      2.81880e+02      -3.93901e+00      -1.07546e+00       1.23951e-03       1.00275e+03
  0.200      2.81245e+02      -3.95295e+00      -1.07652e+00       1.22733e-03       9.90670e+02
  0.300      2.80601e+02      -3.95439e+00      -1.07885e+00       1.21532e-03       9.78725e+02
  0.400      2.79937e+02      -3.92943e+00      -1.08416e+00       1.20350e-03       9.66912e+02
  0.500      2.79267e+02      -3.88869e+00      -1.09473e+00       1.19179e-03       9.55216e+02
  0.600      2.78620e+02      -3.85711e+00      -1.11294e+00       1.18006e-03       9.43623e+02
  0.700      2.77986e+02      -3.84639e+00      -1.13668e+00       1.16835e-03       9.32130e+02
  0.800      2.77322e+02      -3.85623e+00      -1.15980e+00       1.15685e-03       9.20752e+02
  0.900      2.76629e+02      -3.87381e+00      -1.17175e+00       1.14556e-03       9.09493e+02
  1.000      2.75968e+02      -3.86961e+00      -1.15601e+00       1.13424e-03       8.98351e+02
  1.100      2.75378e+02      -3.82724e+00      -1.10523e+00       1.12272e-03       8.87323e+02
  1.200      2.74829e+02      -3.76743e+00      -1.03684e+00       1.11112e-03       8.76409e+02
  1.300      2.74283e+02      -3.71683e+00      -9.72232e-01       1.09961e-03       8.65605e+02
  1.400      2.73698e+02      -3.70208e+00      -9.32772e-01       1.08835e-03       8.54911e+02
  1.500      2.73038e+02      -3.74836e+00      -9.39110e-01       1.07747e-03       8.44324e+02
  1.600      2.72302e+02      -3.85262e+00      -9.97680e-01       1.06697e-03       8.33843e+02
  1.700      2.71521e+02      -3.98622e+00      -1.10202e+00       1.05672e-03       8.23466e+02
  1.800      2.70731e+02      -4.11956e+00      -1.24520e+00       1.04658e-03       8.13190e+02
  1.900      2.69965e+02      -4.22307e+00      -1.42029e+00       1.03642e-03       8.03014e+02
  2.000      2.69253e+02      -4.26920e+00      -1.61973e+00       1.02611e-03       7.92937e+02
  2.100      2.68603e+02      -4.25130e+00      -1.82953e+00       1.01566e-03       7.82959e+02
  2.200      2.68003e+02      -4.17499e+00      -2.03191e+00       1.00509e-03       7.73081e+02
  2.300      2.67445e+02      -4.04605e+00      -2.20903e+00       9.94449e-04       7.63305e+02
  2.400      2.66917e+02      -3.87025e+00      -2.34308e+00       9.83788e-04       7.53634e+02
  2.500      2.66411e+02      -3.65383e+00      -2.41686e+00       9.73145e-04       7.44067e+02
  2.600      2.65918e+02      -3.40931e+00      -2.42219e+00       9.62553e-04       7.34604e+02
  2.700      2.65429e+02      -3.15382e+00      -2.35739e+00       9.52040e-04       7.25245e+02
  2.800      2.64936e+02      -2.90457e+00      -2.22090e+00       9.41636e-04       7.15988e+02
  2.900      2.64432e+02      -2.67879e+00      -2.01122e+00       9.31366e-04       7.06832e+02
  3.000      2.63908e+02      -2.49361e+00      -1.72683e+00       9.21257e-04       6.97775e+02
  3.100      2.63362e+02      -2.35563e+00      -1.37118e+00       9.11317e-04       6.88817e+02
  3.200      2.62796e+02      -2.25077e+00      -9.57314e-01       9.01527e-04       6.79955e+02
  3.300      2.62219e+02      -2.16255e+00      -4.99434e-01       8.91864e-04       6.71188e+02
  3.400      2.61635e+02      -2.07448e+00      -1.17239e-02       8.82306e-04       6.62516e+02
  3.500      2.61050e+02      -1.97008e+00       4.91628e-01       8.72832e-04       6.53937e+02
  3.600      2.60469e+02      -1.83331e+00       9.96135e-01       8.63422e-04       6.45448e+02
  3.700      2.59898e+02      -1.65637e+00       1.48147e+00       8.54062e-04       6.37051e+02
  3.800      2.59338e+02      -1.43895e+00       1.92203e+00       8.44747e-04       6.28745e+02
  3.900      2.58792e+02      -1.18103e+00       2.29200e+00       8.35470e-04       6.20530e+02
  4.000      2.58261e+02      -8.82578e-01       2.56557e+00       8.26227e-04       6.12407e+02
  4.100      2.57749e+02      -5.43560e-01       2.71695e+00       8.17011e-04       6.04375e+02
  4.200      2.57257e+02      -1.63991e-01       2.72130e+00       8.07818e-04       5.96434e+02
  4.300      2.56782e+02       2.54806e-01       2.58241e+00       7.98659e-04       5.88583e+02
  4.400      2.56316e+02       7.10009e-01       2.33667e+00       7.89560e-04       5.80822e+02
  4.500      2.55849e+02       1.19872e+00       2.02222e+00       7.80549e-04       5.73148e+02
  4.600      2.55373e+02       1.71804e+00       1.67720e+00       7.71652e-04       5.65560e+02
  4.700      2.54878e+02       2.26507e+00       1.33974e+00       7.62894e-04       5.58058e+02
  4.800      2.54356e+02       2.83692e+00       1.04800e+00       7.54299e-04       5.50639e+02
  4.900      2.53798e+02       3.42976e+00       8.33214e-01       7.45885e-04       5.43302e+02
  5.000      2.53206e+02       4.03504e+00       6.90823e-01       7.37643e-04       5.36047e+02
  5.100      2.52585e+02       4.64264e+00       6.04673e-01       7.29558e-04       5.28871e+02
  5.200      2.51940e+02       5.24247e+00       5.58606e-01       7.21613e-04       5.21774e+02
  5.300      2.51274e+02       5.82443e+00       5.36464e-01       7.13792e-04       5.14755e+02
  5.400      2.50592e+02       6.37840e+00       5.22090e-01       7.06081e-04       5.07812e+02
  5.500      2.49899e+02       6.89429e+00       4.99324e-01       6.98464e-04       5.00945e+02
  5.600      2.49198e+02       7.36344e+00       4.54370e-01       6.90930e-04       4.94152e+02
  5.700      2.48491e+02       7.78598e+00       3.87795e-01       6.83475e-04       4.87433e+02
  5.800      2.47776e+02       8.16535e+00       3.05576e-01       6.76099e-04       4.80786e+02
  5.900      2.47055e+02       8.50502e+00       2.13696e-01       6.68801e-04       4.74211e+02
  6.000      2.46325e+02       8.80841e+00       1.18142e-01       6.61582e-04       4.67708e+02
  6.100      2.45588e+02       9.07899e+00       2.48982e-02       6.54441e-04       4.61274e+02
  6.200      2.44842e+02       9.32022e+00      -6.00509e-02       6.47377e-04       4.54910e+02
  6.300      2.44088e+02       9.53552e+00      -1.30733e-01       6.40392e-04       4.48615e+02
  6.400      2.43324e+02       9.72881e+00      -1.83230e-01       6.33484e-04       4.42388e+02
  6.500      2.42552e+02       9.90486e+00      -2.17953e-01       6.26651e-04       4.36228e+02
  6.600      2.41771e+02       1.00686e+01      -2.35859e-01       6.19893e-04       4.30134e+02
  6.700      2.40982e+02       1.02249e+01      -2.37903e-01       6.13208e-04       4.24106e+02
  6.800      2.40184e+02       1.03787e+01      -2.25044e-01       6.06594e-04       4.18143e+02
  6.900      2.39378e+02       1.05349e+01      -1.98238e-01       6.00051e-04       4.12245e+02
  7.000      2.38564e+02       1.06984e+01      -1.58441e-01       5.93576e-04       4.06409e+02
  7.100      2.37742e+02       1.08741e+01      -1.06611e-01       5.87169e-04       4.00637e+02
  7.200      2.36912e+02       1.10659e+01      -4.34633e-02       5.80828e-04       3.94926e+02
  7.300      2.36073e+02       1.12710e+01       3.16318e-02       5.74555e-04       3.89278e+02
  7.400      2.35224e+02       1.14849e+01       1.19772e-01       5.68351e-04       3.83690e+02
  7.500      2.34364e+02       1.17027e+01       2.22055e-01       5.62219e-04       3.78163e+02
  7.600      2.33493e+02       1.19196e+01       3.39580e-01       5.56160e-04       3.72696e+02
  7.700      2.32608e+02       1.21310e+01       4.73445e-01       5.50175e-04       3.67288e+02
  7.800      2.31708e+02       1.23320e+01       6.24748e-01       5.44268e-04       3.61940e+02
  7.900      2.30794e+02       1.25180e+01       7.94588e-01       5.38438e-04       3.56650e+02
  8.000      2.29863e+02       1.26841e+01       9.84062e-01       5.32687e-04       3.51418e+02
  8.100      2.28915e+02       1.28262e+01       1.19384e+00       5.27017e-04       3.46243e+02
  8.200      2.27954e+02       1.29458e+01       1.42052e+00       5.21418e-04       3.41125e+02
  8.300      2.26984e+02       1.30478e+01       1.65851e+00       5.15875e-04       3.36063e+02
  8.400      2.26011e+02       1.31367e+01       1.90216e+00       5.10374e-04       3.31055e+02
  8.500      2.25042e+02       1.32173e+01       2.14583e+00       5.04903e-04       3.26101e+02
  8.600      2.24080e+02       1.32943e+01       2.38389e+00       4.99448e-04       3.21200e+02
  8.700      2.23133e+02       1.33724e+01       2.61070e+00       4.93995e-04       3.16350e+02
  8.800      2.22205e+02       1.34565e+01       2.82063e+00       4.88533e-04       3.11551e+02
  8.900      2.21302e+02       1.35511e+01       3.00804e+00       4.83050e-04       3.06802e+02
  9.000      2.20429e+02       1.36610e+01       3.16729e+00       4.77533e-04       3.02103e+02
  9.100      2.19593e+02       1.37909e+01       3.29302e+00       4.71973e-04       2.97452e+02
  9.200      2.18798e+02       1.39432e+01       3.38481e+00       4.66359e-04       2.92851e+02
  9.300      2.18053e+02       1.41186e+01       3.44660e+00       4.60685e-04       2.88301e+02
  9.400      2.17362e+02       1.43178e+01       3.48248e+00       4.54943e-04       2.83807e+02
  9.500      2.16734e+02       1.45414e+01       3.49654e+00       4.49128e-04       2.79369e+02
  9.600      2.16174e+02       1.47900e+01       3.49288e+00       4.43234e-04       2.74991e+02
  9.700      2.15689e+02       1.50642e+01       3.47558e+00       4.37255e-04       2.70673e+02
  9.800      2.15286e+02       1.53647e+01       3.44873e+00       4.31187e-04       2.66418e+02
  9.900      2.14971e+02       1.56921e+01       3.41643e+00       4.25026e-04       2.62227e+02
 10.000      2.14751e+02       1.60470e+01       3.38276e+00       4.18768e-04       2.58101e+02
 10.100      2.14633e+02       1.64301e+01       3.35181e+00       4.12410e-04       2.54043e+02
 10.200      2.14622e+02       1.68420e+01       3.32767e+00       4.05952e-04       2.50053e+02
 10.300      2.14724e+02       1.72822e+01       3.31357e+00       3.99397e-04       2.46132e+02
 10.400      2.14927e+02       1.77459e+01       3.30906e+00       3.92772e-04       2.42278e+02
 10.500      2.15221e+02       1.82274e+01       3.31278e+00       3.86105e-04       2.38491e+02
 10.600      2.15592e+02       1.87205e+01       3.32336e+00       3.79427e-04       2.34770e+02
 10.700      2.16027e+02       1.92195e+01       3.33941e+00       3.72762e-04       2.31112e+02
 10.800      2.16514e+02       1.97184e+01       3.35957e+00       3.66138e-04       2.27517e+02
 10.900      2.17041e+02       2.02113e+01       3.38245e+00       3.59576e-04       2.23983e+02
 11.000      2.17595e+02       2.06923e+01       3.40669e+00       3.53099e-04       2.20509e+02
 11.100      2.18163e+02       2.11554e+01       3.43090e+00       3.46726e-04       2.17094e+02
 11.200      2.18732e+02       2.15948e+01       3.45372e+00       3.40476e-04       2.13737e+02
 11.300      2.19290e+02       2.20045e+01       3.47377e+00       3.34365e-04       2.10437e+02
 11.400      2.19825e+02       2.23786e+01       3.48968e+00       3.28408e-04       2.07192e+02
 11.500      2.20324e+02       2.27112e+01       3.50007e+00       3.22619e-04       2.04001e+02
 11.600      2.20774e+02       2.29964e+01       3.50356e+00       3.17010e-04       2.00864e+02
 11.700      2.21164e+02       2.32288e+01       3.49888e+00       3.11591e-04       1.97779e+02
 11.800      2.21491e+02       2.34085e+01       3.48577e+00       3.06358e-04       1.94746e+02
 11.900      2.21761e+02       2.35385e+01       3.46449e+00       3.01298e-04       1.91762e+02
 12.000      2.21975e+02       2.36220e+01       3.43532e+00       2.96399e-04       1.88827e+02
 12.100      2.22139e+02       2.36620e+01       3.39856e+00       2.91652e-04       1.85939e+02
 12.200      2.22256e+02       2.36617e+01       3.35447e+00       2.87045e-04       1.83099e+02
 12.300      2.22330e+02       2.36240e+01       3.30335e+00       2.82569e-04       1.80303e+02
 12.400      2.22364e+02       2.35522e+01       3.24548e+00       2.78215e-04       1.77552e+02
 12.500      2.22362e+02       2.34493e+01       3.18113e+00       2.73975e-04       1.74845e+02
 12.600      2.22329e+02       2.33184e+01       3.11059e+00       2.69839e-04       1.72180e+02
 12.700      2.22267e+02       2.31625e+01       3.03415e+00       2.65802e-04       1.69556e+02
 12.800      2.22180e+02       2.29849e+01       2.95208e+00       2.61855e-04       1.66974e+02
 12.900      2.22073e+02       2.27886e+01       2.86467e+00       2.57990e-04       1.64430e+02
 13.000      2.21950e+02       2.25766e+01       2.77220e+00       2.54203e-04       1.61926e+02
 13.100      2.21813e+02       2.23522e+01       2.67495e+00       2.50486e-04       1.59460e+02
 13.200      2.21666e+02       2.21183e+01       2.57321e+00       2.46833e-04       1.57031e+02
 13.300      2.21515e+02       2.18780e+01       2.46725e+00       2.43238e-04       1.54638e+02
 13.400      2.21361e+02       2.16346e+01       2.35737e+00       2.39697e-04       1.52281e+02
 13.500      2.21209e+02       2.13910e+01       2.24383e+00       2.36204e-04       1.49959e+02
 13.600      2.21062e+02       2.11498e+01       2.12689e+00       2.32754e-04       1.47671e+02
 13.700      2.20921e+02       2.09117e+01       2.00664e+00       2.29347e-04       1.45416e+02
 13.800      2.20785e+02       2.06768e+01       1.88316e+00       2.25984e-04       1.43195e+02
 13.900      2.20653e+02       2.04453e+01       1.75649e+00       2.22663e-04       1.41007e+02
 14.000      2.20526e+02       2.02173e+01       1.62671e+00       2.19384e-04       1.38850e+02
 14.100      2.20403e+02       1.99931e+01       1.49388e+00       2.16148e-04       1.36726e+02
 14.200      2.20285e+02       1.97727e+01       1.35807e+00       2.12954e-04       1.34633e+02
 14.300      2.20169e+02       1.95564e+01       1.21934e+00       2.09802e-04       1.32571e+02
 14.400      2.20057e+02       1.93443e+01       1.07775e+00       2.06692e-04       1.30539e+02
 14.500      2.19948e+02       1.91366e+01       9.33367e-01       2.03624e-04       1.28538e+02
 14.600      2.19842e+02       1.89334e+01       7.86256e-01       2.00597e-04       1.26566e+02
 14.700      2.19738e+02       1.87350e+01       6.36483e-01       1.97611e-04       1.24623e+02
 14.800      2.19637e+02       1.85414e+01       4.84108e-01       1.94667e-04       1.22710e+02
 14.900      2.19537e+02       1.83528e+01       3.29199e-01       1.91763e-04       1.20824e+02
 15.000      2.19439e+02       1.81694e+01       1.71817e-01       1.88900e-04       1.18967e+02
 15.100      2.19342e+02       1.79914e+01       1.20277e-02       1.86076e-04       1.17137e+02
 15.200      2.19246e+02       1.78189e+01      -1.50103e-01       1.83293e-04       1.15335e+02
 15.300      2.19151e+02       1.76521e+01      -3.14515e-01       1.80550e-04       1.13559e+02
 15.400      2.19056e+02       1.74912e+01      -4.81139e-01       1.77845e-04       1.11810e+02
 15.500      2.18961e+02       1.73363e+01      -6.49916e-01       1.75180e-04       1.10087e+02
 15.600      2.18866e+02       1.71875e+01      -8.20780e-01       1.72554e-04       1.08389e+02
 15.700      2.18771e+02       1.70451e+01      -9.93664e-01       1.69966e-04       1.06717e+02
 15.800      2.18675e+02       1.69093e+01      -1.16851e+00       1.67416e-04       1.05070e+02
 15.900      2.18578e+02       1.67800e+01      -1.34524e+00       1.64904e-04       1.03447e+02
 16.000      2.18480e+02       1.66577e+01      -1.52381e+00       1.62430e-04       1.01849e+02
 16.100      2.18379e+02       1.65423e+01      -1.70414e+00       1.59992e-04       1.00275e+02
 16.200      2.18278e+02       1.64340e+01      -1.88612e+00       1.57592e-04       9.87243e+01
 16.300      2.18174e+02       1.63315e+01      -2.06916e+00       1.55227e-04       9.71969e+01
 16.400      2.18069e+02       1.62332e+01      -2.25255e+00       1.52898e-04       9.56924e+01
 16.500      2.17962e+02       1.61376e+01      -2.43554e+00       1.50604e-04       9.42105e+01
 16.600      2.17855e+02       1.60431e+01      -2.61739e+00       1.48343e-04       9.27508e+01
 16.700      2.17747e+02       1.59479e+01      -2.79735e+00       1.46116e-04       9.13130e+01
 16.800      2.17638e+02       1.58505e+01      -2.97469e+00       1.43922e-04       8.98969e+01
 16.900      2.17529e+02       1.57494e+01      -3.14867e+00       1.41760e-04       8.85021e+01
 17.000      2.17421e+02       1.56428e+01      -3.31855e+00       1.39629e-04       8.71282e+01
 17.100      2.17312e+02       1.55292e+01      -3.48358e+00       1.37529e-04       8.57751e+01
 17.200      2.17205e+02       1.54069e+01      -3.64302e+00       1.35459e-04       8.44423e+01
 17.300      2.17098e+02       1.52743e+01      -3.79614e+00       1.33419e-04       8.31297e+01
 17.400      2.16992e+02       1.51299e+01      -3.94219e+00       1.31409e-04       8.18369e+01
 17.500      2.16888e+02       1.49720e+01      -4.08044e+00       1.29426e-04       8.05636e+01
 17.600      2.16785e+02       1.47989e+01      -4.21014e+00       1.27472e-04       7.93095e+01
 17.700      2.16684e+02       1.46092e+01      -4.33055e+00       1.25545e-04       7.80743e+01
 17.800      2.16585e+02       1.44011e+01      -4.44093e+00       1.23645e-04       7.68579e+01
 17.900      2.16489e+02       1.41731e+01      -4.54054e+00       1.21772e-04       7.56599e+01
 18.000      2.16395e+02       1.39235e+01      -4.62865e+00       1.19925e-04       7.44799e+01
 18.100      2.16305e+02       1.36507e+01      -4.70450e+00       1.18103e-04       7.33179e+01
 18.200      2.16217e+02       1.33532e+01      -4.76736e+00       1.16307e-04       7.21735e+01
 18.300      2.16133e+02       1.30293e+01      -4.81649e+00       1.14535e-04       7.10464e+01
 18.400      2.16053e+02       1.26773e+01      -4.85115e+00       1.12788e-04       6.99365e+01
 18.500      2.15977e+02       1.22965e+01      -4.87092e+00       1.11064e-04       6.88434e+01
 18.600      2.15904e+02       1.18890e+01      -4.87646e+00       1.09364e-04       6.77669e+01
 18.700      2.15835e+02       1.14572e+01      -4.86866e+00       1.07688e-04       6.67070e+01
 18.800      2.15770e+02       1.10037e+01      -4.84842e+00       1.06035e-04       6.56634e+01
 18.900      2.15708e+02       1.05312e+01      -4.81663e+00       1.04406e-04       6.46359e+01
 19.000      2.15649e+02       1.00422e+01      -4.77418e+00       1.02800e-04       6.36244e+01
 19.100      2.15593e+02       9.53931e+00      -4.72195e+00       1.01217e-04       6.26286e+01
 19.200      2.15540e+02       9.02506e+00      -4.66084e+00       9.96578e-05       6.16484e+01
 19.300      2.15490e+02       8.50205e+00      -4.59175e+00       9.81211e-05       6.06836e+01
 19.400      2.15442e+02       7.97286e+00      -4.51556e+00       9.66071e-05       5.97341e+01
 19.500      2.15397e+02       7.44007e+00      -4.43316e+00       9.51158e-05       5.87995e+01
 19.600      2.15354e+02       6.90626e+00      -4.34545e+00       9.36469e-05       5.78798e+01
 19.700      2.15312e+02       6.37401e+00      -4.25331e+00       9.22002e-05       5.69748e+01
 19.800      2.15273e+02       5.84590e+00      -4.15764e+00       9.07757e-05       5.60843e+01
 19.900      2.15236e+02       5.32450e+00      -4.05933e+00       8.93730e-05       5.52081e+01
 20.000      2.15200e+02       4.81238e+00      -3.95927e+00       8.79921e-05       5.43460e+01
 20.100      2.15165e+02       4.31214e+00      -3.85836e+00       8.66327e-05       5.34978e+01
 20.200      2.15132e+02       3.82635e+00      -3.75747e+00       8.52947e-05       5.26634e+01
 20.300      2.15100e+02       3.35760e+00      -3.65751e+00       8.39779e-05       5.18426e+01
