# Data Source: NASA GEOS5 Near-Real-Time
# Model Time = 2010-01-28 18:00:00
# Location = [  39.7393, -104.9900 ]
# Fields = [ Z(km), T(K), U(m/s), V(m/s), R(g/cm3), P(mbar) ]
# Ground Height = 1.589
  0.000      2.84068e+02       2.29474e+00      -4.75936e-01       1.25448e-03       1.02275e+03
  0.100      2.83423e+02       2.26230e+00      -4.71243e-01       1.24225e-03       1.01048e+03
  0.200      2.82786e+02       2.21906e+00      -4.54174e-01       1.23014e-03       9.98375e+02
  0.300      2.82147e+02       2.17751e+00      -4.39035e-01       1.21815e-03       9.86414e+02
  0.400      2.81499e+02       2.15012e+00      -4.40136e-01       1.20630e-03       9.74572e+02
  0.500      2.80835e+02       2.14083e+00      -4.69863e-01       1.19459e-03       9.62834e+02
  0.600      2.80142e+02       2.12288e+00      -5.33715e-01       1.18308e-03       9.51204e+02
  0.700      2.79416e+02       2.06810e+00      -6.28350e-01       1.17179e-03       9.39689e+02
  0.800      2.78676e+02       1.97826e+00      -7.10450e-01       1.16065e-03       9.28287e+02
  0.900      2.77949e+02       1.86786e+00      -7.28425e-01       1.14953e-03       9.16996e+02
  1.000      2.77256e+02       1.77684e+00      -6.83964e-01       1.13835e-03       9.05814e+02
  1.100      2.76613e+02       1.75789e+00      -6.09453e-01       1.12704e-03       8.94736e+02
  1.200      2.76022e+02       1.81664e+00      -5.39846e-01       1.11561e-03       8.83765e+02
  1.300      2.75468e+02       1.90857e+00      -5.12316e-01       1.10412e-03       8.72908e+02
  1.400      2.74935e+02       1.99988e+00      -5.35602e-01       1.09265e-03       8.62169e+02
  1.500      2.74390e+02       2.08670e+00      -5.53569e-01       1.08133e-03       8.51545e+02
  1.600      2.73802e+02       2.16758e+00      -5.10892e-01       1.07027e-03       8.41034e+02
  1.700      2.73149e+02       2.23053e+00      -4.13202e-01       1.05956e-03       8.30629e+02
  1.800      2.72414e+02       2.26028e+00      -2.88780e-01       1.04924e-03       8.20325e+02
  1.900      2.71628e+02       2.26448e+00      -1.42386e-01       1.03918e-03       8.10118e+02
  2.000      2.70879e+02       2.27658e+00       4.77298e-02       1.02905e-03       8.00008e+02
  2.100      2.70235e+02       2.32042e+00       2.94329e-01       1.01859e-03       7.89996e+02
  2.200      2.69676e+02       2.37571e+00       5.68478e-01       1.00790e-03       7.80086e+02
  2.300      2.69159e+02       2.41167e+00       8.31905e-01       9.97142e-04       7.70280e+02
  2.400      2.68667e+02       2.41150e+00       1.07413e+00       9.86393e-04       7.60581e+02
  2.500      2.68206e+02       2.37296e+00       1.31376e+00       9.75629e-04       7.50991e+02
  2.600      2.67785e+02       2.30032e+00       1.56324e+00       9.64824e-04       7.41510e+02
  2.700      2.67411e+02       2.22966e+00       1.79396e+00       9.53961e-04       7.32135e+02
  2.800      2.67087e+02       2.20774e+00       1.96334e+00       9.43024e-04       7.22864e+02
  2.900      2.66816e+02       2.26055e+00       2.03740e+00       9.32009e-04       7.13697e+02
  3.000      2.66598e+02       2.37158e+00       1.99971e+00       9.20933e-04       7.04638e+02
  3.100      2.66428e+02       2.51931e+00       1.83758e+00       9.09818e-04       6.95691e+02
  3.200      2.66299e+02       2.68744e+00       1.57844e+00       8.98700e-04       6.86857e+02
  3.300      2.66194e+02       2.86510e+00       1.29169e+00       8.87633e-04       6.78131e+02
  3.400      2.66097e+02       3.04245e+00       1.04601e+00       8.76672e-04       6.69512e+02
  3.500      2.65979e+02       3.21991e+00       8.75765e-01       8.65905e-04       6.60997e+02
  3.600      2.65808e+02       3.40503e+00       7.91452e-01       8.55435e-04       6.52584e+02
  3.700      2.65550e+02       3.60532e+00       8.01648e-01       8.45355e-04       6.44270e+02
  3.800      2.65202e+02       3.82654e+00       8.99782e-01       8.35668e-04       6.36053e+02
  3.900      2.64776e+02       4.07337e+00       1.07011e+00       8.26323e-04       6.27930e+02
  4.000      2.64284e+02       4.34935e+00       1.29611e+00       8.17272e-04       6.19898e+02
  4.100      2.63739e+02       4.64319e+00       1.55283e+00       8.08469e-04       6.11954e+02
  4.200      2.63151e+02       4.93328e+00       1.80944e+00       7.99871e-04       6.04097e+02
  4.300      2.62533e+02       5.19792e+00       2.03566e+00       7.91435e-04       5.96323e+02
  4.400      2.61894e+02       5.41934e+00       2.21949e+00       7.83132e-04       5.88630e+02
  4.500      2.61239e+02       5.58397e+00       2.36842e+00       7.74943e-04       5.81018e+02
  4.600      2.60573e+02       5.67844e+00       2.49094e+00       7.66852e-04       5.73485e+02
  4.700      2.59900e+02       5.69503e+00       2.59930e+00       7.58841e-04       5.66030e+02
  4.800      2.59225e+02       5.63850e+00       2.71417e+00       7.50900e-04       5.58652e+02
  4.900      2.58552e+02       5.51529e+00       2.85737e+00       7.43017e-04       5.51352e+02
  5.000      2.57883e+02       5.33358e+00       3.04875e+00       7.35183e-04       5.44127e+02
  5.100      2.57219e+02       5.11391e+00       3.29436e+00       7.27395e-04       5.36978e+02
  5.200      2.56562e+02       4.88213e+00       3.59431e+00       7.19655e-04       5.29905e+02
  5.300      2.55909e+02       4.66406e+00       3.94866e+00       7.11962e-04       5.22908e+02
  5.400      2.55262e+02       4.48165e+00       4.35442e+00       7.04320e-04       5.15987e+02
  5.500      2.54619e+02       4.35025e+00       4.80355e+00       6.96731e-04       5.09140e+02
  5.600      2.53978e+02       4.28457e+00       5.28750e+00       6.89198e-04       5.02367e+02
  5.700      2.53337e+02       4.29840e+00       5.79708e+00       6.81725e-04       4.95667e+02
  5.800      2.52693e+02       4.39415e+00       6.31536e+00       6.74322e-04       4.89038e+02
  5.900      2.52041e+02       4.56647e+00       6.82009e+00       6.67002e-04       4.82481e+02
  6.000      2.51375e+02       4.80988e+00       7.28894e+00       6.59778e-04       4.75995e+02
  6.100      2.50691e+02       5.11925e+00       7.70065e+00       6.52661e-04       4.69578e+02
  6.200      2.49985e+02       5.49168e+00       8.04060e+00       6.45657e-04       4.63231e+02
  6.300      2.49255e+02       5.92516e+00       8.29683e+00       6.38771e-04       4.56952e+02
  6.400      2.48499e+02       6.41768e+00       8.45736e+00       6.32004e-04       4.50740e+02
  6.500      2.47716e+02       6.96514e+00       8.51566e+00       6.25357e-04       4.44595e+02
  6.600      2.46909e+02       7.55154e+00       8.49634e+00       6.18820e-04       4.38514e+02
  6.700      2.46084e+02       8.15662e+00       8.43512e+00       6.12375e-04       4.32496e+02
  6.800      2.45245e+02       8.76012e+00       8.36775e+00       6.06007e-04       4.26540e+02
  6.900      2.44398e+02       9.34231e+00       8.32855e+00       5.99701e-04       4.20644e+02
  7.000      2.43547e+02       9.88844e+00       8.33907e+00       5.93449e-04       4.14809e+02
  7.100      2.42695e+02       1.03864e+01       8.41411e+00       5.87244e-04       4.09035e+02
  7.200      2.41844e+02       1.08241e+01       8.56841e+00       5.81079e-04       4.03323e+02
  7.300      2.40998e+02       1.11899e+01       8.81628e+00       5.74949e-04       3.97672e+02
  7.400      2.40159e+02       1.14901e+01       9.15699e+00       5.68852e-04       3.92084e+02
  7.500      2.39324e+02       1.17534e+01       9.57100e+00       5.62787e-04       3.86556e+02
  7.600      2.38493e+02       1.20100e+01       1.00375e+01       5.56758e-04       3.81087e+02
  7.700      2.37666e+02       1.22899e+01       1.05358e+01       5.50765e-04       3.75677e+02
  7.800      2.36840e+02       1.26177e+01       1.10509e+01       5.44808e-04       3.70323e+02
  7.900      2.36020e+02       1.29835e+01       1.16019e+01       5.38882e-04       3.65027e+02
  8.000      2.35209e+02       1.33655e+01       1.22204e+01       5.32979e-04       3.59788e+02
  8.100      2.34412e+02       1.37417e+01       1.29378e+01       5.27090e-04       3.54606e+02
  8.200      2.33632e+02       1.40902e+01       1.37857e+01       5.21209e-04       3.49483e+02
  8.300      2.32873e+02       1.43940e+01       1.47816e+01       5.15330e-04       3.44418e+02
  8.400      2.32132e+02       1.46517e+01       1.59018e+01       5.09459e-04       3.39411e+02
  8.500      2.31407e+02       1.48645e+01       1.71153e+01       5.03603e-04       3.34462e+02
  8.600      2.30695e+02       1.50337e+01       1.83907e+01       4.97768e-04       3.29570e+02
  8.700      2.29994e+02       1.51605e+01       1.96969e+01       4.91961e-04       3.24735e+02
  8.800      2.29300e+02       1.52497e+01       2.10083e+01       4.86189e-04       3.19956e+02
  8.900      2.28608e+02       1.53186e+01       2.23187e+01       4.80461e-04       3.15233e+02
  9.000      2.27915e+02       1.53866e+01       2.36262e+01       4.74786e-04       3.10565e+02
  9.100      2.27215e+02       1.54737e+01       2.49286e+01       4.69175e-04       3.05953e+02
  9.200      2.26504e+02       1.55993e+01       2.62239e+01       4.63637e-04       3.01394e+02
  9.300      2.25776e+02       1.57816e+01       2.75086e+01       4.58179e-04       2.96890e+02
  9.400      2.25033e+02       1.60193e+01       2.87664e+01       4.52801e-04       2.92439e+02
  9.500      2.24275e+02       1.63001e+01       2.99728e+01       4.47498e-04       2.88040e+02
  9.600      2.23504e+02       1.66114e+01       3.11031e+01       4.42264e-04       2.83693e+02
  9.700      2.22724e+02       1.69404e+01       3.21329e+01       4.37094e-04       2.79398e+02
  9.800      2.21935e+02       1.72746e+01       3.30375e+01       4.31984e-04       2.75153e+02
  9.900      2.21139e+02       1.76054e+01       3.37925e+01       4.26930e-04       2.70959e+02
 10.000      2.20332e+02       1.79420e+01       3.43742e+01       4.21937e-04       2.66813e+02
 10.100      2.19510e+02       1.82986e+01       3.47587e+01       4.17013e-04       2.62715e+02
 10.200      2.18667e+02       1.86894e+01       3.49226e+01       4.12166e-04       2.58665e+02
 10.300      2.17799e+02       1.91287e+01       3.48420e+01       4.07402e-04       2.54661e+02
 10.400      2.16902e+02       1.96307e+01       3.44934e+01       4.02728e-04       2.50702e+02
 10.500      2.15974e+02       2.02026e+01       3.38557e+01       3.98143e-04       2.46788e+02
 10.600      2.15042e+02       2.08026e+01       3.29259e+01       3.93601e-04       2.42919e+02
 10.700      2.14142e+02       2.13686e+01       3.17085e+01       3.89036e-04       2.39097e+02
 10.800      2.13312e+02       2.18381e+01       3.02082e+01       3.84383e-04       2.35322e+02
 10.900      2.12590e+02       2.21489e+01       2.84294e+01       3.79581e-04       2.31595e+02
 11.000      2.12012e+02       2.22385e+01       2.63769e+01       3.74571e-04       2.27917e+02
 11.100      2.11616e+02       2.20448e+01       2.40553e+01       3.69298e-04       2.24289e+02
 11.200      2.11422e+02       2.15409e+01       2.14898e+01       3.63742e-04       2.20712e+02
 11.300      2.11410e+02       2.07790e+01       1.87515e+01       3.57955e-04       2.17188e+02
 11.400      2.11555e+02       1.98222e+01       1.59179e+01       3.51995e-04       2.13718e+02
 11.500      2.11832e+02       1.87335e+01       1.30665e+01       3.45922e-04       2.10306e+02
 11.600      2.12217e+02       1.75760e+01       1.02748e+01       3.39789e-04       2.06953e+02
 11.700      2.12684e+02       1.64128e+01       7.62017e+00       3.33647e-04       2.03660e+02
 11.800      2.13209e+02       1.53070e+01       5.18013e+00       3.27545e-04       2.00428e+02
 11.900      2.13767e+02       1.43132e+01       3.02128e+00       3.21525e-04       1.97260e+02
 12.000      2.14342e+02       1.34350e+01       1.14467e+00       3.15612e-04       1.94152e+02
 12.100      2.14916e+02       1.26571e+01      -4.72927e-01       3.09826e-04       1.91103e+02
 12.200      2.15474e+02       1.19644e+01      -1.85476e+00       3.04184e-04       1.88111e+02
 12.300      2.16000e+02       1.13413e+01      -3.02412e+00       2.98702e-04       1.85171e+02
 12.400      2.16479e+02       1.07727e+01      -4.00428e+00       2.93393e-04       1.82284e+02
 12.500      2.16895e+02       1.02433e+01      -4.81851e+00       2.88271e-04       1.79446e+02
 12.600      2.17232e+02       9.73764e+00      -5.49009e+00       2.83348e-04       1.76655e+02
 12.700      2.17474e+02       9.24079e+00      -6.04217e+00       2.78633e-04       1.73909e+02
 12.800      2.17619e+02       8.74618e+00      -6.49374e+00       2.74122e-04       1.71208e+02
 12.900      2.17680e+02       8.25848e+00      -6.85831e+00       2.69791e-04       1.68549e+02
 13.000      2.17670e+02       7.78308e+00      -7.14902e+00       2.65614e-04       1.65933e+02
 13.100      2.17606e+02       7.32539e+00      -7.37903e+00       2.61571e-04       1.63358e+02
 13.200      2.17499e+02       6.89082e+00      -7.56147e+00       2.57639e-04       1.60824e+02
 13.300      2.17366e+02       6.48475e+00      -7.70951e+00       2.53799e-04       1.58330e+02
 13.400      2.17220e+02       6.11260e+00      -7.83629e+00       2.50032e-04       1.55876e+02
 13.500      2.17076e+02       5.77976e+00      -7.95495e+00       2.46320e-04       1.53459e+02
 13.600      2.16948e+02       5.49164e+00      -8.07865e+00       2.42646e-04       1.51081e+02
 13.700      2.16849e+02       5.25339e+00      -8.22003e+00       2.38994e-04       1.48740e+02
 13.800      2.16784e+02       5.06524e+00      -8.38195e+00       2.35360e-04       1.46434e+02
 13.900      2.16750e+02       4.92304e+00      -8.55850e+00       2.31749e-04       1.44165e+02
 14.000      2.16742e+02       4.82246e+00      -8.74345e+00       2.28164e-04       1.41929e+02
 14.100      2.16755e+02       4.75918e+00      -8.93056e+00       2.24610e-04       1.39727e+02
 14.200      2.16786e+02       4.72888e+00      -9.11360e+00       2.21091e-04       1.37557e+02
 14.300      2.16829e+02       4.72723e+00      -9.28634e+00       2.17611e-04       1.35419e+02
 14.400      2.16882e+02       4.74990e+00      -9.44254e+00       2.14173e-04       1.33312e+02
 14.500      2.16938e+02       4.79259e+00      -9.57599e+00       2.10781e-04       1.31235e+02
 14.600      2.16995e+02       4.85096e+00      -9.68043e+00       2.07437e-04       1.29187e+02
 14.700      2.17048e+02       4.92068e+00      -9.74964e+00       2.04145e-04       1.27167e+02
 14.800      2.17092e+02       4.99745e+00      -9.77738e+00       2.00906e-04       1.25175e+02
 14.900      2.17124e+02       5.07719e+00      -9.75888e+00       1.97724e-04       1.23211e+02
 15.000      2.17144e+02       5.15728e+00      -9.69692e+00       1.94598e-04       1.21274e+02
 15.100      2.17153e+02       5.23553e+00      -9.59673e+00       1.91527e-04       1.19365e+02
 15.200      2.17152e+02       5.30974e+00      -9.46358e+00       1.88512e-04       1.17486e+02
 15.300      2.17143e+02       5.37773e+00      -9.30270e+00       1.85551e-04       1.15635e+02
 15.400      2.17127e+02       5.43733e+00      -9.11935e+00       1.82643e-04       1.13815e+02
 15.500      2.17105e+02       5.48634e+00      -8.91877e+00       1.79789e-04       1.12025e+02
 15.600      2.17078e+02       5.52257e+00      -8.70621e+00       1.76987e-04       1.10265e+02
 15.700      2.17047e+02       5.54385e+00      -8.48692e+00       1.74237e-04       1.08536e+02
 15.800      2.17014e+02       5.54799e+00      -8.26615e+00       1.71538e-04       1.06839e+02
 15.900      2.16980e+02       5.53280e+00      -8.04914e+00       1.68890e-04       1.05173e+02
 16.000      2.16945e+02       5.49610e+00      -7.84115e+00       1.66292e-04       1.03539e+02
 16.100      2.16912e+02       5.43570e+00      -7.64741e+00       1.63743e-04       1.01936e+02
 16.200      2.16882e+02       5.34941e+00      -7.47318e+00       1.61243e-04       1.00366e+02
 16.300      2.16855e+02       5.23532e+00      -7.32321e+00       1.58791e-04       9.88275e+01
 16.400      2.16831e+02       5.09366e+00      -7.19808e+00       1.56386e-04       9.73198e+01
 16.500      2.16812e+02       4.92573e+00      -7.09632e+00       1.54025e-04       9.58417e+01
 16.600      2.16795e+02       4.73284e+00      -7.01643e+00       1.51706e-04       9.43917e+01
 16.700      2.16782e+02       4.51632e+00      -6.95693e+00       1.49428e-04       9.29686e+01
 16.800      2.16772e+02       4.27747e+00      -6.91634e+00       1.47188e-04       9.15710e+01
 16.900      2.16764e+02       4.01761e+00      -6.89314e+00       1.44986e-04       9.01978e+01
 17.000      2.16759e+02       3.73804e+00      -6.88587e+00       1.42820e-04       8.88479e+01
 17.100      2.16756e+02       3.44009e+00      -6.89303e+00       1.40687e-04       8.75201e+01
 17.200      2.16755e+02       3.12507e+00      -6.91313e+00       1.38587e-04       8.62134e+01
 17.300      2.16756e+02       2.79430e+00      -6.94467e+00       1.36519e-04       8.49268e+01
 17.400      2.16759e+02       2.44907e+00      -6.98618e+00       1.34480e-04       8.36594e+01
 17.500      2.16763e+02       2.09071e+00      -7.03616e+00       1.32469e-04       8.24102e+01
 17.600      2.16768e+02       1.72054e+00      -7.09312e+00       1.30486e-04       8.11784e+01
 17.700      2.16774e+02       1.33985e+00      -7.15557e+00       1.28529e-04       7.99632e+01
 17.800      2.16782e+02       9.49988e-01      -7.22202e+00       1.26597e-04       7.87637e+01
 17.900      2.16789e+02       5.52237e-01      -7.29099e+00       1.24688e-04       7.75792e+01
 18.000      2.16797e+02       1.47922e-01      -7.36098e+00       1.22803e-04       7.64090e+01
 18.100      2.16806e+02      -2.61645e-01      -7.43050e+00       1.20939e-04       7.52524e+01
 18.200      2.16814e+02      -6.75148e-01      -7.49806e+00       1.19097e-04       7.41088e+01
 18.300      2.16822e+02      -1.09127e+00      -7.56218e+00       1.17275e-04       7.29775e+01
 18.400      2.16829e+02      -1.50871e+00      -7.62137e+00       1.15472e-04       7.18580e+01
 18.500      2.16836e+02      -1.92614e+00      -7.67412e+00       1.13687e-04       7.07497e+01
 18.600      2.16842e+02      -2.34226e+00      -7.71898e+00       1.11921e-04       6.96521e+01
 18.700      2.16846e+02      -2.75598e+00      -7.75511e+00       1.10171e-04       6.85652e+01
 18.800      2.16850e+02      -3.16656e+00      -7.78278e+00       1.08441e-04       6.74893e+01
 18.900      2.16853e+02      -3.57332e+00      -7.80234e+00       1.06730e-04       6.64252e+01
 19.000      2.16854e+02      -3.97554e+00      -7.81414e+00       1.05039e-04       6.53731e+01
 19.100      2.16853e+02      -4.37254e+00      -7.81855e+00       1.03369e-04       6.43337e+01
 19.200      2.16852e+02      -4.76362e+00      -7.81590e+00       1.01721e-04       6.33072e+01
 19.300      2.16848e+02      -5.14806e+00      -7.80657e+00       1.00094e-04       6.22943e+01
 19.400      2.16843e+02      -5.52519e+00      -7.79089e+00       9.84911e-05       6.12950e+01
 19.500      2.16837e+02      -5.89430e+00      -7.76923e+00       9.69111e-05       6.03099e+01
 19.600      2.16828e+02      -6.25469e+00      -7.74195e+00       9.53550e-05       5.93392e+01
 19.700      2.16818e+02      -6.60567e+00      -7.70938e+00       9.38231e-05       5.83832e+01
 19.800      2.16806e+02      -6.94652e+00      -7.67190e+00       9.23160e-05       5.74421e+01
 19.900      2.16792e+02      -7.27658e+00      -7.62985e+00       9.08338e-05       5.65161e+01
 20.000      2.16776e+02      -7.59511e+00      -7.58359e+00       8.93769e-05       5.56055e+01
 20.100      2.16757e+02      -7.90145e+00      -7.53347e+00       8.79456e-05       5.47103e+01
 20.200      2.16736e+02      -8.19487e+00      -7.47984e+00       8.65400e-05       5.38308e+01
 20.300      2.16713e+02      -8.47469e+00      -7.42307e+00       8.51606e-05       5.29671e+01
