# Data Source: NASA GEOS5 Near-Real-Time
# Model Time = 2010-10-06 18:00:00
# Location = [  39.7393, -104.9900 ]
# Fields = [ Z(km), T(K), U(m/s), V(m/s), R(g/cm3), P(mbar) ]
# Ground Height = 1.589
  0.000      2.99737e+02      -3.00428e+00      -3.17183e-02       1.19360e-03       1.02679e+03
  0.100      2.99104e+02      -3.01019e+00      -1.87650e-02       1.18213e-03       1.01477e+03
  0.200      2.98481e+02      -3.03876e+00      -5.13027e-03       1.17075e-03       1.00291e+03
  0.300      2.97859e+02      -3.07183e+00       8.63928e-03       1.15947e-03       9.91179e+02
  0.400      2.97232e+02      -3.09120e+00       2.19972e-02       1.14832e-03       9.79586e+02
  0.500      2.96592e+02      -3.08073e+00       3.42910e-02       1.13733e-03       9.68120e+02
  0.600      2.95940e+02      -3.05480e+00       4.32878e-02       1.12649e-03       9.56781e+02
  0.700      2.95279e+02      -3.05045e+00       4.56112e-02       1.11579e-03       9.45573e+02
  0.800      2.94615e+02      -3.07649e+00       4.05518e-02       1.10520e-03       9.34494e+02
  0.900      2.93950e+02      -3.10400e+00       3.09334e-02       1.09471e-03       9.23534e+02
  1.000      2.93287e+02      -3.10835e+00       1.63261e-02       1.08430e-03       9.12689e+02
  1.100      2.92624e+02      -3.08351e+00      -1.30934e-02       1.07398e-03       9.01965e+02
  1.200      2.91961e+02      -3.02930e+00      -6.49108e-02       1.06378e-03       8.91370e+02
  1.300      2.91288e+02      -2.96512e+00      -1.19978e-01       1.05371e-03       8.80898e+02
  1.400      2.90595e+02      -2.91816e+00      -1.48400e-01       1.04380e-03       8.70540e+02
  1.500      2.89887e+02      -2.89607e+00      -1.43799e-01       1.03404e-03       8.60294e+02
  1.600      2.89188e+02      -2.88306e+00      -1.27946e-01       1.02433e-03       8.50163e+02
  1.700      2.88504e+02      -2.86107e+00      -1.20858e-01       1.01467e-03       8.40149e+02
  1.800      2.87763e+02      -2.80818e+00      -1.28252e-01       1.00528e-03       8.30240e+02
  1.900      2.86879e+02      -2.70257e+00      -1.51765e-01       9.96456e-04       8.20424e+02
  2.000      2.85864e+02      -2.55240e+00      -1.84253e-01       9.88133e-04       8.10694e+02
  2.100      2.84846e+02      -2.39850e+00      -2.09012e-01       9.79874e-04       8.01054e+02
  2.200      2.83939e+02      -2.28622e+00      -2.03671e-01       9.71284e-04       7.91505e+02
  2.300      2.83178e+02      -2.27696e+00      -1.16952e-01       9.62261e-04       7.82048e+02
  2.400      2.82563e+02      -2.43731e+00       1.12133e-01       9.52805e-04       7.72684e+02
  2.500      2.82088e+02      -2.78707e+00       5.06848e-01       9.42962e-04       7.63416e+02
  2.600      2.81719e+02      -3.25471e+00       1.01683e+00       9.32860e-04       7.54250e+02
  2.700      2.81421e+02      -3.75919e+00       1.58358e+00       9.22635e-04       7.45193e+02
  2.800      2.81142e+02      -4.23982e+00       2.15632e+00       9.12461e-04       7.36244e+02
  2.900      2.80816e+02      -4.65470e+00       2.69131e+00       9.02542e-04       7.27397e+02
  3.000      2.80384e+02      -4.96629e+00       3.14905e+00       8.93057e-04       7.18645e+02
  3.100      2.79846e+02      -5.17201e+00       3.52715e+00       8.83988e-04       7.09983e+02
  3.200      2.79239e+02      -5.28841e+00       3.84359e+00       8.75214e-04       7.01409e+02
  3.300      2.78593e+02      -5.33440e+00       4.11688e+00       8.66625e-04       6.92921e+02
  3.400      2.77928e+02      -5.34332e+00       4.36800e+00       8.58160e-04       6.84514e+02
  3.500      2.77255e+02      -5.35434e+00       4.61887e+00       8.49778e-04       6.76187e+02
  3.600      2.76585e+02      -5.40092e+00       4.88886e+00       8.41443e-04       6.67938e+02
  3.700      2.75922e+02      -5.48117e+00       5.18129e+00       8.33149e-04       6.59766e+02
  3.800      2.75266e+02      -5.57970e+00       5.49338e+00       8.24896e-04       6.51678e+02
  3.900      2.74617e+02      -5.68058e+00       5.82255e+00       8.16687e-04       6.43673e+02
  4.000      2.73972e+02      -5.76411e+00       6.16775e+00       8.08535e-04       6.35751e+02
  4.100      2.73324e+02      -5.80883e+00       6.52866e+00       8.00450e-04       6.27906e+02
  4.200      2.72668e+02      -5.79367e+00       6.90468e+00       7.92446e-04       6.20135e+02
  4.300      2.72008e+02      -5.70289e+00       7.29184e+00       7.84510e-04       6.12438e+02
  4.400      2.71355e+02      -5.52449e+00       7.68369e+00       7.76612e-04       6.04818e+02
  4.500      2.70722e+02      -5.24672e+00       8.07372e+00       7.68724e-04       5.97276e+02
  4.600      2.70112e+02      -4.86376e+00       8.45418e+00       7.60834e-04       5.89815e+02
  4.700      2.69522e+02      -4.37830e+00       8.81551e+00       7.52954e-04       5.82430e+02
  4.800      2.68945e+02      -3.79372e+00       9.14803e+00       7.45096e-04       5.75119e+02
  4.900      2.68377e+02      -3.11770e+00       9.44128e+00       7.37274e-04       5.67879e+02
  5.000      2.67811e+02      -2.37606e+00       9.68172e+00       7.29507e-04       5.60712e+02
  5.100      2.67242e+02      -1.59939e+00       9.85494e+00       7.21814e-04       5.53620e+02
  5.200      2.66663e+02      -8.18030e-01       9.94719e+00       7.14216e-04       5.46606e+02
  5.300      2.66070e+02      -5.64457e-02       9.95982e+00       7.06723e-04       5.39668e+02
  5.400      2.65458e+02       6.66999e-01       9.90995e+00       6.99342e-04       5.32805e+02
  5.500      2.64824e+02       1.33424e+00       9.81542e+00       6.92080e-04       5.26012e+02
  5.600      2.64165e+02       1.92850e+00       9.69221e+00       6.84938e-04       5.19287e+02
  5.700      2.63483e+02       2.44132e+00       9.54478e+00       6.77905e-04       5.12630e+02
  5.800      2.62787e+02       2.86741e+00       9.37303e+00       6.70963e-04       5.06040e+02
  5.900      2.62083e+02       3.20151e+00       9.17690e+00       6.64094e-04       4.99516e+02
  6.000      2.61375e+02       3.44105e+00       8.95974e+00       6.57284e-04       4.93060e+02
  6.100      2.60666e+02       3.59208e+00       8.73589e+00       6.50530e-04       4.86669e+02
  6.200      2.59955e+02       3.66236e+00       8.52189e+00       6.43832e-04       4.80344e+02
  6.300      2.59244e+02       3.65967e+00       8.33427e+00       6.37186e-04       4.74085e+02
  6.400      2.58531e+02       3.59217e+00       8.18390e+00       6.30594e-04       4.67890e+02
  6.500      2.57816e+02       3.46909e+00       8.06701e+00       6.24058e-04       4.61760e+02
  6.600      2.57095e+02       3.29982e+00       7.97744e+00       6.17584e-04       4.55693e+02
  6.700      2.56368e+02       3.09373e+00       7.90908e+00       6.11175e-04       4.49688e+02
  6.800      2.55633e+02       2.86173e+00       7.85752e+00       6.04833e-04       4.43746e+02
  6.900      2.54892e+02       2.61985e+00       7.82425e+00       5.98551e-04       4.37865e+02
  7.000      2.54149e+02       2.38525e+00       7.81202e+00       5.92323e-04       4.32045e+02
  7.100      2.53407e+02       2.17506e+00       7.82359e+00       5.86141e-04       4.26287e+02
  7.200      2.52668e+02       2.00471e+00       7.86139e+00       5.79998e-04       4.20589e+02
  7.300      2.51933e+02       1.87575e+00       7.92526e+00       5.73894e-04       4.14952e+02
  7.400      2.51201e+02       1.78306e+00       8.01379e+00       5.67829e-04       4.09375e+02
  7.500      2.50473e+02       1.72149e+00       8.12559e+00       5.61803e-04       4.03856e+02
  7.600      2.49748e+02       1.68590e+00       8.25922e+00       5.55817e-04       3.98397e+02
  7.700      2.49026e+02       1.67102e+00       8.41212e+00       5.49871e-04       3.92995e+02
  7.800      2.48307e+02       1.67142e+00       8.57977e+00       5.43962e-04       3.87650e+02
  7.900      2.47595e+02       1.68165e+00       8.75743e+00       5.38088e-04       3.82364e+02
  8.000      2.46889e+02       1.69626e+00       8.94039e+00       5.32247e-04       3.77135e+02
  8.100      2.46191e+02       1.70986e+00       9.12404e+00       5.26436e-04       3.71964e+02
  8.200      2.45500e+02       1.71829e+00       9.30552e+00       5.20660e-04       3.66849e+02
  8.300      2.44809e+02       1.71832e+00       9.48338e+00       5.14930e-04       3.61790e+02
  8.400      2.44114e+02       1.70674e+00       9.65621e+00       5.09254e-04       3.56787e+02
  8.500      2.43411e+02       1.68035e+00       9.82259e+00       5.03641e-04       3.51838e+02
  8.600      2.42694e+02       1.63629e+00       9.98101e+00       4.98100e-04       3.46943e+02
  8.700      2.41965e+02       1.57641e+00       1.01285e+01       4.92631e-04       3.42102e+02
  8.800      2.41224e+02       1.50589e+00       1.02612e+01       4.87226e-04       3.37313e+02
  8.900      2.40476e+02       1.43002e+00       1.03752e+01       4.81880e-04       3.32578e+02
  9.000      2.39723e+02       1.35407e+00       1.04664e+01       4.76587e-04       3.27894e+02
  9.100      2.38968e+02       1.28328e+00       1.05311e+01       4.71340e-04       3.23263e+02
  9.200      2.38213e+02       1.22163e+00       1.05720e+01       4.66137e-04       3.18684e+02
  9.300      2.37453e+02       1.17131e+00       1.06006e+01       4.60982e-04       3.14155e+02
  9.400      2.36689e+02       1.13438e+00       1.06295e+01       4.55879e-04       3.09677e+02
  9.500      2.35916e+02       1.11291e+00       1.06708e+01       4.50831e-04       3.05249e+02
  9.600      2.35134e+02       1.10896e+00       1.07370e+01       4.45841e-04       3.00869e+02
  9.700      2.34340e+02       1.12410e+00       1.08389e+01       4.40912e-04       2.96538e+02
  9.800      2.33537e+02       1.15604e+00       1.09770e+01       4.36037e-04       2.92255e+02
  9.900      2.32731e+02       1.20083e+00       1.11471e+01       4.31207e-04       2.88019e+02
 10.000      2.31925e+02       1.25448e+00       1.13450e+01       4.26412e-04       2.83831e+02
 10.100      2.31126e+02       1.31302e+00       1.15665e+01       4.21644e-04       2.79690e+02
 10.200      2.30338e+02       1.37247e+00       1.18074e+01       4.16893e-04       2.75595e+02
 10.300      2.29564e+02       1.43001e+00       1.20635e+01       4.12154e-04       2.71547e+02
 10.400      2.28800e+02       1.49001e+00       1.23310e+01       4.07436e-04       2.67545e+02
 10.500      2.28037e+02       1.55962e+00       1.26065e+01       4.02753e-04       2.63588e+02
 10.600      2.27267e+02       1.64601e+00       1.28862e+01       3.98120e-04       2.59676e+02
 10.700      2.26482e+02       1.75631e+00       1.31666e+01       3.93551e-04       2.55809e+02
 10.800      2.25672e+02       1.89770e+00       1.34441e+01       3.89059e-04       2.51986e+02
 10.900      2.24832e+02       2.07702e+00       1.37152e+01       3.84656e-04       2.48206e+02
 11.000      2.23966e+02       2.29329e+00       1.39790e+01       3.80330e-04       2.44469e+02
 11.100      2.23096e+02       2.53718e+00       1.42373e+01       3.76046e-04       2.40776e+02
 11.200      2.22242e+02       2.79898e+00       1.44919e+01       3.71767e-04       2.37126e+02
 11.300      2.21427e+02       3.06896e+00       1.47449e+01       3.67459e-04       2.33519e+02
 11.400      2.20672e+02       3.33740e+00       1.49981e+01       3.63089e-04       2.29955e+02
 11.500      2.19999e+02       3.59457e+00       1.52534e+01       3.58623e-04       2.26433e+02
 11.600      2.19427e+02       3.83128e+00       1.55124e+01       3.54033e-04       2.22954e+02
 11.700      2.18958e+02       4.04683e+00       1.57683e+01       3.49326e-04       2.19519e+02
 11.800      2.18575e+02       4.24719e+00       1.60081e+01       3.44532e-04       2.16129e+02
 11.900      2.18263e+02       4.43851e+00       1.62188e+01       3.39685e-04       2.12784e+02
 12.000      2.18007e+02       4.62697e+00       1.63872e+01       3.34814e-04       2.09486e+02
 12.100      2.17790e+02       4.81873e+00       1.65000e+01       3.29950e-04       2.06237e+02
 12.200      2.17596e+02       5.01994e+00       1.65442e+01       3.25119e-04       2.03037e+02
 12.300      2.17410e+02       5.23678e+00       1.65066e+01       3.20348e-04       1.99887e+02
 12.400      2.17219e+02       5.47301e+00       1.63784e+01       3.15658e-04       1.96787e+02
 12.500      2.17017e+02       5.72387e+00       1.61663e+01       3.11052e-04       1.93735e+02
 12.600      2.16801e+02       5.98267e+00       1.58806e+01       3.06532e-04       1.90730e+02
 12.700      2.16568e+02       6.24271e+00       1.55315e+01       3.02098e-04       1.87769e+02
 12.800      2.16316e+02       6.49733e+00       1.51293e+01       2.97750e-04       1.84852e+02
 12.900      2.16042e+02       6.73982e+00       1.46841e+01       2.93488e-04       1.81974e+02
 13.000      2.15741e+02       6.96350e+00       1.42064e+01       2.89314e-04       1.79137e+02
 13.100      2.15412e+02       7.16168e+00       1.37063e+01       2.85226e-04       1.76336e+02
 13.200      2.15051e+02       7.32781e+00       1.31940e+01       2.81226e-04       1.73572e+02
 13.300      2.14661e+02       7.45800e+00       1.26790e+01       2.77309e-04       1.70843e+02
 13.400      2.14245e+02       7.55098e+00       1.21703e+01       2.73467e-04       1.68151e+02
 13.500      2.13811e+02       7.60556e+00       1.16765e+01       2.69694e-04       1.65494e+02
 13.600      2.13363e+02       7.62053e+00       1.12065e+01       2.65981e-04       1.62874e+02
 13.700      2.12908e+02       7.59472e+00       1.07692e+01       2.62323e-04       1.60291e+02
 13.800      2.12450e+02       7.52692e+00       1.03733e+01       2.58712e-04       1.57745e+02
 13.900      2.11996e+02       7.41596e+00       1.00276e+01       2.55143e-04       1.55237e+02
 14.000      2.11551e+02       7.26063e+00       9.74099e+00       2.51610e-04       1.52765e+02
 14.100      2.11121e+02       7.05975e+00       9.52227e+00       2.48105e-04       1.50332e+02
 14.200      2.10711e+02       6.81302e+00       9.37803e+00       2.44626e-04       1.47935e+02
 14.300      2.10322e+02       6.52559e+00       9.30153e+00       2.41169e-04       1.45575e+02
 14.400      2.09953e+02       6.20464e+00       9.28098e+00       2.37734e-04       1.43250e+02
 14.500      2.09604e+02       5.85736e+00       9.30462e+00       2.34320e-04       1.40958e+02
 14.600      2.09275e+02       5.49094e+00       9.36065e+00       2.30926e-04       1.38699e+02
 14.700      2.08966e+02       5.11256e+00       9.43730e+00       2.27552e-04       1.36470e+02
 14.800      2.08675e+02       4.72942e+00       9.52279e+00       2.24197e-04       1.34271e+02
 14.900      2.08404e+02       4.34871e+00       9.60533e+00       2.20861e-04       1.32101e+02
 15.000      2.08150e+02       3.97760e+00       9.67315e+00       2.17543e-04       1.29958e+02
 15.100      2.07914e+02       3.62329e+00       9.71446e+00       2.14243e-04       1.27842e+02
 15.200      2.07696e+02       3.29297e+00       9.71749e+00       2.10960e-04       1.25751e+02
 15.300      2.07495e+02       2.99342e+00       9.67119e+00       2.07694e-04       1.23684e+02
 15.400      2.07311e+02       2.72603e+00       9.57408e+00       2.04448e-04       1.21643e+02
 15.500      2.07144e+02       2.48847e+00       9.43135e+00       2.01226e-04       1.19629e+02
 15.600      2.06993e+02       2.27833e+00       9.24830e+00       1.98030e-04       1.17643e+02
 15.700      2.06857e+02       2.09321e+00       9.03025e+00       1.94864e-04       1.15687e+02
 15.800      2.06737e+02       1.93070e+00       8.78251e+00       1.91732e-04       1.13762e+02
 15.900      2.06633e+02       1.78839e+00       8.51040e+00       1.88637e-04       1.11868e+02
 16.000      2.06543e+02       1.66388e+00       8.21923e+00       1.85580e-04       1.10008e+02
 16.100      2.06468e+02       1.55474e+00       7.91431e+00       1.82565e-04       1.08181e+02
 16.200      2.06407e+02       1.45858e+00       7.60095e+00       1.79595e-04       1.06390e+02
 16.300      2.06360e+02       1.37299e+00       7.28448e+00       1.76670e-04       1.04634e+02
 16.400      2.06327e+02       1.29555e+00       6.97020e+00       1.73794e-04       1.02914e+02
 16.500      2.06307e+02       1.22387e+00       6.66342e+00       1.70969e-04       1.01231e+02
 16.600      2.06301e+02       1.15553e+00       6.36945e+00       1.68195e-04       9.95853e+01
 16.700      2.06307e+02       1.08901e+00       6.09165e+00       1.65473e-04       9.79767e+01
 16.800      2.06325e+02       1.02442e+00       5.82971e+00       1.62802e-04       9.64037e+01
 16.900      2.06356e+02       9.62078e-01       5.58289e+00       1.60179e-04       9.48643e+01
 17.000      2.06398e+02       9.02296e-01       5.35044e+00       1.57601e-04       9.33571e+01
 17.100      2.06452e+02       8.45385e-01       5.13164e+00       1.55068e-04       9.18803e+01
 17.200      2.06518e+02       7.91655e-01       4.92573e+00       1.52576e-04       9.04326e+01
 17.300      2.06594e+02       7.41420e-01       4.73199e+00       1.50124e-04       8.90124e+01
 17.400      2.06682e+02       6.94988e-01       4.54968e+00       1.47711e-04       8.76184e+01
 17.500      2.06780e+02       6.52672e-01       4.37804e+00       1.45334e-04       8.62494e+01
 17.600      2.06888e+02       6.14783e-01       4.21635e+00       1.42992e-04       8.49039e+01
 17.700      2.07006e+02       5.81634e-01       4.06387e+00       1.40683e-04       8.35810e+01
 17.800      2.07134e+02       5.53535e-01       3.91986e+00       1.38407e-04       8.22794e+01
 17.900      2.07271e+02       5.30797e-01       3.78358e+00       1.36161e-04       8.09980e+01
 18.000      2.07418e+02       5.13733e-01       3.65429e+00       1.33945e-04       7.97358e+01
 18.100      2.07573e+02       5.02653e-01       3.53125e+00       1.31756e-04       7.84919e+01
 18.200      2.07737e+02       4.97869e-01       3.41372e+00       1.29595e-04       7.72653e+01
 18.300      2.07910e+02       4.99692e-01       3.30098e+00       1.27459e-04       7.60551e+01
 18.400      2.08090e+02       5.08435e-01       3.19226e+00       1.25348e-04       7.48605e+01
 18.500      2.08279e+02       5.24407e-01       3.08684e+00       1.23261e-04       7.36807e+01
 18.600      2.08475e+02       5.47921e-01       2.98399e+00       1.21197e-04       7.25150e+01
 18.700      2.08678e+02       5.79289e-01       2.88295e+00       1.19155e-04       7.13625e+01
 18.800      2.08888e+02       6.18820e-01       2.78299e+00       1.17134e-04       7.02227e+01
 18.900      2.09105e+02       6.66745e-01       2.68347e+00       1.15133e-04       6.90950e+01
 19.000      2.09328e+02       7.22685e-01       2.58439e+00       1.13154e-04       6.79796e+01
 19.100      2.09556e+02       7.85992e-01       2.48606e+00       1.11198e-04       6.68772e+01
 19.200      2.09788e+02       8.56018e-01       2.38878e+00       1.09266e-04       6.57881e+01
 19.300      2.10024e+02       9.32112e-01       2.29286e+00       1.07359e-04       6.47130e+01
 19.400      2.10263e+02       1.01363e+00       2.19861e+00       1.05480e-04       6.36522e+01
 19.500      2.10504e+02       1.09992e+00       2.10633e+00       1.03627e-04       6.26061e+01
 19.600      2.10746e+02       1.19033e+00       2.01633e+00       1.01804e-04       6.15752e+01
 19.700      2.10988e+02       1.28422e+00       1.92891e+00       1.00010e-04       6.05597e+01
 19.800      2.11230e+02       1.38093e+00       1.84439e+00       9.82463e-05       5.95599e+01
 19.900      2.11471e+02       1.47982e+00       1.76305e+00       9.65137e-05       5.85762e+01
 20.000      2.11709e+02       1.58024e+00       1.68522e+00       9.48127e-05       5.76087e+01
 20.100      2.11945e+02       1.68155e+00       1.61120e+00       9.31438e-05       5.66576e+01
 20.200      2.12177e+02       1.78308e+00       1.54128e+00       9.15076e-05       5.57233e+01
 20.300      2.12404e+02       1.88419e+00       1.47579e+00       8.99044e-05       5.48057e+01
