# Data Source: NASA MERRA (version 2)
# Model Calculated 2019-07-18 23:03:57
# Model Time = 2011-09-12 18:00:00
# Location = [  39.1026,  -84.5123 ]
# Fields = [ Z(km), T(K), U(m/s), V(m/s), R(g/cm3), P(mbar) ]
# Ground Height = 0.165
  0.000      3.00403e+02       2.64535e+00       1.42131e+00       1.18001e-03       1.01736e+03
  0.100      2.99573e+02       2.84072e+00       1.47382e+00       1.16982e-03       1.00578e+03
  0.200      2.98781e+02       3.05671e+00       1.52828e+00       1.15959e-03       9.94346e+02
  0.300      2.97951e+02       3.25243e+00       1.58082e+00       1.14959e-03       9.83035e+02
  0.400      2.97010e+02       3.38725e+00       1.62758e+00       1.14010e-03       9.71845e+02
  0.500      2.95946e+02       3.44455e+00       1.66324e+00       1.13116e-03       9.60769e+02
  0.600      2.94861e+02       3.45029e+00       1.67995e+00       1.12235e-03       9.49792e+02
  0.700      2.93844e+02       3.43554e+00       1.66984e+00       1.11333e-03       9.38905e+02
  0.800      2.92886e+02       3.43416e+00       1.62595e+00       1.10412e-03       9.28103e+02
  0.900      2.91954e+02       3.47758e+00       1.54174e+00       1.09485e-03       9.17386e+02
  1.000      2.91025e+02       3.56692e+00       1.41219e+00       1.08562e-03       9.06756e+02
  1.100      2.90079e+02       3.68601e+00       1.23321e+00       1.07650e-03       8.96218e+02
  1.200      2.89114e+02       3.82466e+00       1.00127e+00       1.06751e-03       8.85773e+02
  1.300      2.88150e+02       3.98159e+00       7.13612e-01       1.05856e-03       8.75421e+02
  1.400      2.87212e+02       4.15617e+00       3.67561e-01       1.04957e-03       8.65158e+02
  1.500      2.86323e+02       4.34780e+00      -3.95685e-02       1.04045e-03       8.54983e+02
  1.600      2.85506e+02       4.55562e+00      -5.09710e-01       1.03111e-03       8.44895e+02
  1.700      2.84765e+02       4.77292e+00      -1.02810e+00       1.02156e-03       8.34893e+02
  1.800      2.84085e+02       4.98728e+00      -1.56360e+00       1.01184e-03       8.24981e+02
  1.900      2.83452e+02       5.18604e+00      -2.08437e+00       1.00203e-03       8.15159e+02
  2.000      2.82850e+02       5.35653e+00      -2.55856e+00       9.92177e-04       8.05429e+02
  2.100      2.82263e+02       5.48628e+00      -2.95501e+00       9.82345e-04       7.95794e+02
  2.200      2.81684e+02       5.56896e+00      -3.26316e+00       9.72563e-04       7.86253e+02
  2.300      2.81112e+02       5.60548e+00      -3.49673e+00       9.62834e-04       7.76807e+02
  2.400      2.80547e+02       5.59713e+00      -3.67083e+00       9.53157e-04       7.67455e+02
  2.500      2.79990e+02       5.54524e+00      -3.80057e+00       9.43534e-04       7.58196e+02
  2.600      2.79439e+02       5.45111e+00      -3.90107e+00       9.33963e-04       7.49030e+02
  2.700      2.78895e+02       5.31862e+00      -3.98461e+00       9.24449e-04       7.39955e+02
  2.800      2.78352e+02       5.15914e+00      -4.05533e+00       9.15006e-04       7.30972e+02
  2.900      2.77807e+02       4.98540e+00      -4.11586e+00       9.05649e-04       7.22079e+02
  3.000      2.77253e+02       4.81011e+00      -4.16882e+00       8.96394e-04       7.13275e+02
  3.100      2.76686e+02       4.64602e+00      -4.21686e+00       8.87255e-04       7.04559e+02
  3.200      2.76101e+02       4.50562e+00      -4.26252e+00       8.78245e-04       6.95930e+02
  3.300      2.75502e+02       4.39568e+00      -4.30610e+00       8.69351e-04       6.87389e+02
  3.400      2.74903e+02       4.31676e+00      -4.34551e+00       8.60530e-04       6.78933e+02
  3.500      2.74316e+02       4.26915e+00      -4.37851e+00       8.51741e-04       6.70565e+02
  3.600      2.73756e+02       4.25312e+00      -4.40289e+00       8.42943e-04       6.62282e+02
  3.700      2.73235e+02       4.26896e+00      -4.41642e+00       8.34097e-04       6.54086e+02
  3.800      2.72767e+02       4.31671e+00      -4.41693e+00       8.25168e-04       6.45975e+02
  3.900      2.72352e+02       4.39156e+00      -4.40326e+00       8.16158e-04       6.37950e+02
  4.000      2.71978e+02       4.48371e+00      -4.37532e+00       8.07110e-04       6.30011e+02
  4.100      2.71632e+02       4.58318e+00      -4.33304e+00       7.98066e-04       6.22159e+02
  4.200      2.71301e+02       4.67997e+00      -4.27638e+00       7.89067e-04       6.14394e+02
  4.300      2.70972e+02       4.76409e+00      -4.20527e+00       7.80152e-04       6.06716e+02
  4.400      2.70632e+02       4.82555e+00      -4.11966e+00       7.71358e-04       5.99125e+02
  4.500      2.70271e+02       4.85716e+00      -4.02067e+00       7.62716e-04       5.91622e+02
  4.600      2.69882e+02       4.85967e+00      -3.91277e+00       7.54239e-04       5.84203e+02
  4.700      2.69459e+02       4.83524e+00      -3.80102e+00       7.45935e-04       5.76867e+02
  4.800      2.68999e+02       4.78603e+00      -3.69047e+00       7.37814e-04       5.69612e+02
  4.900      2.68495e+02       4.71418e+00      -3.58617e+00       7.29885e-04       5.62434e+02
  5.000      2.67942e+02       4.62186e+00      -3.49320e+00       7.22156e-04       5.55333e+02
  5.100      2.67335e+02       4.51123e+00      -3.41660e+00       7.14635e-04       5.48305e+02
  5.200      2.66675e+02       4.38527e+00      -3.36059e+00       7.07317e-04       5.41350e+02
  5.300      2.65970e+02       4.24859e+00      -3.32778e+00       7.00173e-04       5.34467e+02
  5.400      2.65232e+02       4.10602e+00      -3.32057e+00       6.93171e-04       5.27654e+02
  5.500      2.64471e+02       3.96235e+00      -3.34136e+00       6.86281e-04       5.20910e+02
  5.600      2.63699e+02       3.82240e+00      -3.39255e+00       6.79472e-04       5.14235e+02
  5.700      2.62925e+02       3.69098e+00      -3.47656e+00       6.72715e-04       5.07628e+02
  5.800      2.62161e+02       3.57290e+00      -3.59579e+00       6.65983e-04       5.01087e+02
  5.900      2.61417e+02       3.47230e+00      -3.75221e+00       6.59250e-04       4.94613e+02
  6.000      2.60694e+02       3.38888e+00      -3.94502e+00       6.52512e-04       4.88204e+02
  6.100      2.59992e+02       3.32049e+00      -4.17227e+00       6.45770e-04       4.81860e+02
  6.200      2.59311e+02       3.26501e+00      -4.43199e+00       6.39029e-04       4.75580e+02
  6.300      2.58650e+02       3.22031e+00      -4.72223e+00       6.32289e-04       4.69364e+02
  6.400      2.58007e+02       3.18425e+00      -5.04103e+00       6.25554e-04       4.63211e+02
  6.500      2.57383e+02       3.15470e+00      -5.38643e+00       6.18827e-04       4.57121e+02
  6.600      2.56777e+02       3.12952e+00      -5.75647e+00       6.12109e-04       4.51093e+02
  6.700      2.56187e+02       3.10708e+00      -6.14915e+00       6.05404e-04       4.45127e+02
  6.800      2.55611e+02       3.08928e+00      -6.56209e+00       5.98722e-04       4.39224e+02
  6.900      2.55045e+02       3.07951e+00      -6.99274e+00       5.92077e-04       4.33387e+02
  7.000      2.54485e+02       3.08118e+00      -7.43859e+00       5.85480e-04       4.27618e+02
  7.100      2.53928e+02       3.09768e+00      -7.89708e+00       5.78943e-04       4.21918e+02
  7.200      2.53370e+02       3.13242e+00      -8.36570e+00       5.72479e-04       4.16290e+02
  7.300      2.52807e+02       3.18880e+00      -8.84190e+00       5.66099e-04       4.10736e+02
  7.400      2.52235e+02       3.27021e+00      -9.32315e+00       5.59812e-04       4.05256e+02
  7.500      2.51652e+02       3.38007e+00      -9.80692e+00       5.53629e-04       3.99853e+02
  7.600      2.51053e+02       3.51993e+00      -1.02905e+01       5.47555e-04       3.94525e+02
  7.700      2.50438e+02       3.68458e+00      -1.07704e+01       5.41581e-04       3.89265e+02
  7.800      2.49807e+02       3.86725e+00      -1.12432e+01       5.35692e-04       3.84062e+02
  7.900      2.49160e+02       4.06117e+00      -1.17051e+01       5.29876e-04       3.78909e+02
  8.000      2.48497e+02       4.25957e+00      -1.21527e+01       5.24121e-04       3.73795e+02
  8.100      2.47817e+02       4.45566e+00      -1.25825e+01       5.18413e-04       3.68714e+02
  8.200      2.47121e+02       4.64269e+00      -1.29907e+01       5.12744e-04       3.63658e+02
  8.300      2.46409e+02       4.81388e+00      -1.33738e+01       5.07100e-04       3.58618e+02
  8.400      2.45680e+02       4.96245e+00      -1.37283e+01       5.01472e-04       3.53589e+02
  8.500      2.44935e+02       5.08169e+00      -1.40506e+01       4.95851e-04       3.48564e+02
  8.600      2.44173e+02       5.16962e+00      -1.43392e+01       4.90239e-04       3.43548e+02
  8.700      2.43399e+02       5.23260e+00      -1.45959e+01       4.84665e-04       3.38565e+02
  8.800      2.42614e+02       5.27785e+00      -1.48230e+01       4.79156e-04       3.33637e+02
  8.900      2.41821e+02       5.31259e+00      -1.50227e+01       4.73739e-04       3.28788e+02
  9.000      2.41024e+02       5.34404e+00      -1.51975e+01       4.68440e-04       3.24037e+02
  9.100      2.40224e+02       5.37940e+00      -1.53494e+01       4.63281e-04       3.19406e+02
  9.200      2.39425e+02       5.42590e+00      -1.54808e+01       4.58288e-04       3.14912e+02
  9.300      2.38629e+02       5.49075e+00      -1.55940e+01       4.53481e-04       3.10573e+02
  9.400      2.37839e+02       5.58116e+00      -1.56912e+01       4.48881e-04       3.06406e+02
  9.500      2.37059e+02       5.70436e+00      -1.57747e+01       4.44509e-04       3.02425e+02
  9.600      2.36289e+02       5.86745e+00      -1.58467e+01       4.40384e-04       2.98646e+02
  9.700      2.35533e+02       6.07267e+00      -1.59081e+01       4.36504e-04       2.95068e+02
  9.800      2.34790e+02       6.31526e+00      -1.59581e+01       4.32842e-04       2.91669e+02
  9.900      2.34058e+02       6.58994e+00      -1.59954e+01       4.29370e-04       2.88427e+02
 10.000      2.33337e+02       6.89142e+00      -1.60189e+01       4.26059e-04       2.85322e+02
 10.100      2.32626e+02       7.21443e+00      -1.60277e+01       4.22884e-04       2.82333e+02
 10.200      2.31925e+02       7.55366e+00      -1.60204e+01       4.19818e-04       2.79441e+02
 10.300      2.31233e+02       7.90386e+00      -1.59962e+01       4.16837e-04       2.76629e+02
 10.400      2.30549e+02       8.25972e+00      -1.59538e+01       4.13917e-04       2.73878e+02
 10.500      2.29873e+02       8.61596e+00      -1.58921e+01       4.11033e-04       2.71172e+02
 10.600      2.29203e+02       8.96731e+00      -1.58100e+01       4.08163e-04       2.68494e+02
 10.700      2.28539e+02       9.30846e+00      -1.57065e+01       4.05284e-04       2.65829e+02
 10.800      2.27881e+02       9.63415e+00      -1.55804e+01       4.02376e-04       2.63162e+02
 10.900      2.27228e+02       9.93909e+00      -1.54306e+01       3.99417e-04       2.60478e+02
 11.000      2.26579e+02       1.02180e+01      -1.52560e+01       3.96387e-04       2.57763e+02
 11.100      2.25932e+02       1.04656e+01      -1.50555e+01       3.93267e-04       2.55004e+02
 11.200      2.25289e+02       1.06765e+01      -1.48280e+01       3.90036e-04       2.52189e+02
 11.300      2.24647e+02       1.08456e+01      -1.45724e+01       3.86679e-04       2.49306e+02
 11.400      2.24008e+02       1.09707e+01      -1.42890e+01       3.83182e-04       2.46348e+02
 11.500      2.23372e+02       1.10557e+01      -1.39807e+01       3.79544e-04       2.43317e+02
 11.600      2.22744e+02       1.11054e+01      -1.36507e+01       3.75765e-04       2.40216e+02
 11.700      2.22123e+02       1.11245e+01      -1.33025e+01       3.71845e-04       2.37049e+02
 11.800      2.21515e+02       1.11178e+01      -1.29392e+01       3.67785e-04       2.33818e+02
 11.900      2.20919e+02       1.10900e+01      -1.25642e+01       3.63586e-04       2.30528e+02
 12.000      2.20339e+02       1.10458e+01      -1.21807e+01       3.59250e-04       2.27180e+02
 12.100      2.19778e+02       1.09900e+01      -1.17921e+01       3.54777e-04       2.23780e+02
 12.200      2.19236e+02       1.09273e+01      -1.14016e+01       3.50170e-04       2.20330e+02
 12.300      2.18718e+02       1.08625e+01      -1.10124e+01       3.45430e-04       2.16833e+02
 12.400      2.18224e+02       1.08002e+01      -1.06280e+01       3.40561e-04       2.13294e+02
 12.500      2.17757e+02       1.07453e+01      -1.02516e+01       3.35566e-04       2.09716e+02
 12.600      2.17320e+02       1.07025e+01      -9.88640e+00       3.30447e-04       2.06103e+02
 12.700      2.16915e+02       1.06764e+01      -9.53578e+00       3.25208e-04       2.02457e+02
 12.800      2.16544e+02       1.06719e+01      -9.20295e+00       3.19854e-04       1.98784e+02
 12.900      2.16208e+02       1.06908e+01      -8.88929e+00       3.14398e-04       1.95089e+02
 13.000      2.15904e+02       1.07313e+01      -8.59317e+00       3.08867e-04       1.91387e+02
 13.100      2.15629e+02       1.07908e+01      -8.31270e+00       3.03288e-04       1.87691e+02
 13.200      2.15380e+02       1.08668e+01      -8.04600e+00       2.97688e-04       1.84013e+02
 13.300      2.15155e+02       1.09570e+01      -7.79120e+00       2.92090e-04       1.80364e+02
 13.400      2.14951e+02       1.10588e+01      -7.54642e+00       2.86517e-04       1.76755e+02
 13.500      2.14765e+02       1.11699e+01      -7.30977e+00       2.80990e-04       1.73196e+02
 13.600      2.14594e+02       1.12878e+01      -7.07937e+00       2.75529e-04       1.69695e+02
 13.700      2.14436e+02       1.14101e+01      -6.85335e+00       2.70153e-04       1.66260e+02
 13.800      2.14288e+02       1.15342e+01      -6.62981e+00       2.64877e-04       1.62901e+02
 13.900      2.14146e+02       1.16578e+01      -6.40689e+00       2.59717e-04       1.59622e+02
 14.000      2.14008e+02       1.17785e+01      -6.18270e+00       2.54688e-04       1.56430e+02
 14.100      2.13872e+02       1.18937e+01      -5.95536e+00       2.49801e-04       1.53331e+02
 14.200      2.13735e+02       1.20011e+01      -5.72299e+00       2.45070e-04       1.50331e+02
 14.300      2.13593e+02       1.20984e+01      -5.48405e+00       2.40502e-04       1.47431e+02
 14.400      2.13448e+02       1.21852e+01      -5.23884e+00       2.36093e-04       1.44629e+02
 14.500      2.13299e+02       1.22615e+01      -4.98836e+00       2.31833e-04       1.41921e+02
 14.600      2.13148e+02       1.23273e+01      -4.73358e+00       2.27714e-04       1.39300e+02
 14.700      2.12995e+02       1.23827e+01      -4.47548e+00       2.23728e-04       1.36764e+02
 14.800      2.12840e+02       1.24276e+01      -4.21502e+00       2.19867e-04       1.34306e+02
 14.900      2.12685e+02       1.24622e+01      -3.95319e+00       2.16125e-04       1.31924e+02
 15.000      2.12530e+02       1.24865e+01      -3.69097e+00       2.12494e-04       1.29613e+02
 15.100      2.12375e+02       1.25004e+01      -3.42932e+00       2.08967e-04       1.27369e+02
 15.200      2.12222e+02       1.25042e+01      -3.16924e+00       2.05540e-04       1.25190e+02
 15.300      2.12071e+02       1.24977e+01      -2.91169e+00       2.02205e-04       1.23071e+02
 15.400      2.11923e+02       1.24810e+01      -2.65765e+00       1.98957e-04       1.21010e+02
 15.500      2.11778e+02       1.24542e+01      -2.40809e+00       1.95791e-04       1.19003e+02
 15.600      2.11637e+02       1.24172e+01      -2.16400e+00       1.92703e-04       1.17047e+02
 15.700      2.11501e+02       1.23702e+01      -1.92635e+00       1.89686e-04       1.15141e+02
 15.800      2.11370e+02       1.23132e+01      -1.69611e+00       1.86736e-04       1.13280e+02
 15.900      2.11245e+02       1.22461e+01      -1.47427e+00       1.83850e-04       1.11463e+02
 16.000      2.11127e+02       1.21691e+01      -1.26180e+00       1.81022e-04       1.09688e+02
 16.100      2.11016e+02       1.20822e+01      -1.05967e+00       1.78250e-04       1.07951e+02
 16.200      2.10914e+02       1.19854e+01      -8.68864e-01       1.75529e-04       1.06251e+02
 16.300      2.10820e+02       1.18787e+01      -6.90360e-01       1.72855e-04       1.04586e+02
 16.400      2.10735e+02       1.17623e+01      -5.25129e-01       1.70226e-04       1.02954e+02
 16.500      2.10660e+02       1.16360e+01      -3.74150e-01       1.67638e-04       1.01353e+02
 16.600      2.10596e+02       1.15000e+01      -2.38399e-01       1.65088e-04       9.97811e+01
 16.700      2.10544e+02       1.13545e+01      -1.18417e-01       1.62573e-04       9.82366e+01
 16.800      2.10502e+02       1.11999e+01      -1.36038e-02       1.60093e-04       9.67188e+01
 16.900      2.10471e+02       1.10369e+01       7.68359e-02       1.57647e-04       9.52267e+01
 17.000      2.10451e+02       1.08660e+01       1.53691e-01       1.55232e-04       9.37594e+01
 17.100      2.10441e+02       1.06879e+01       2.17751e-01       1.52849e-04       9.23160e+01
 17.200      2.10442e+02       1.05031e+01       2.69807e-01       1.50497e-04       9.08958e+01
 17.300      2.10453e+02       1.03123e+01       3.10650e-01       1.48175e-04       8.94979e+01
 17.400      2.10474e+02       1.01160e+01       3.41072e-01       1.45882e-04       8.81216e+01
 17.500      2.10505e+02       9.91484e+00       3.61862e-01       1.43617e-04       8.67661e+01
 17.600      2.10545e+02       9.70938e+00       3.73810e-01       1.41380e-04       8.54309e+01
 17.700      2.10595e+02       9.50024e+00       3.77709e-01       1.39169e-04       8.41152e+01
 17.800      2.10655e+02       9.28800e+00       3.74347e-01       1.36985e-04       8.28184e+01
 17.900      2.10723e+02       9.07326e+00       3.64517e-01       1.34827e-04       8.15398e+01
 18.000      2.10800e+02       8.85661e+00       3.49008e-01       1.32693e-04       8.02790e+01
 18.100      2.10886e+02       8.63865e+00       3.28612e-01       1.30584e-04       7.90352e+01
 18.200      2.10981e+02       8.41997e+00       3.04119e-01       1.28499e-04       7.78081e+01
 18.300      2.11084e+02       8.20117e+00       2.76320e-01       1.26437e-04       7.65970e+01
 18.400      2.11195e+02       7.98284e+00       2.46004e-01       1.24398e-04       7.54015e+01
 18.500      2.11315e+02       7.76556e+00       2.13964e-01       1.22381e-04       7.42211e+01
 18.600      2.11442e+02       7.54994e+00       1.80989e-01       1.20387e-04       7.30553e+01
 18.700      2.11577e+02       7.33656e+00       1.47870e-01       1.18414e-04       7.19038e+01
 18.800      2.11719e+02       7.12604e+00       1.15399e-01       1.16462e-04       7.07661e+01
 18.900      2.11869e+02       6.91894e+00       8.43626e-02       1.14530e-04       6.96419e+01
 19.000      2.12026e+02       6.71575e+00       5.53566e-02       1.12620e-04       6.85310e+01
 19.100      2.12189e+02       6.51672e+00       2.86691e-02       1.10732e-04       6.74337e+01
 19.200      2.12358e+02       6.32212e+00       4.56022e-03       1.08866e-04       6.63504e+01
 19.300      2.12532e+02       6.13219e+00      -1.67097e-02       1.07024e-04       6.52814e+01
 19.400      2.12710e+02       5.94718e+00      -3.48815e-02       1.05207e-04       6.42269e+01
 19.500      2.12892e+02       5.76734e+00      -4.96946e-02       1.03416e-04       6.31873e+01
 19.600      2.13077e+02       5.59293e+00      -6.08891e-02       1.01651e-04       6.21627e+01
 19.700      2.13264e+02       5.42419e+00      -6.82050e-02       9.99124e-05       6.11533e+01
 19.800      2.13453e+02       5.26138e+00      -7.13824e-02       9.82016e-05       6.01594e+01
 19.900      2.13643e+02       5.10473e+00      -7.01611e-02       9.65186e-05       5.91809e+01
 20.000      2.13833e+02       4.95452e+00      -6.42813e-02       9.48640e-05       5.82182e+01
 20.100      2.14023e+02       4.81098e+00      -5.34829e-02       9.32382e-05       5.72713e+01
 20.200      2.14212e+02       4.67436e+00      -3.75058e-02       9.16417e-05       5.63403e+01
