# Data Source: NASA GEOS5 Near-Real-Time
# Model Time = 2010-01-16 18:00:00
# Location = [  39.7393, -104.9900 ]
# Fields = [ Z(km), T(K), U(m/s), V(m/s), R(g/cm3), P(mbar) ]
# Ground Height = 1.589
  0.000      2.92603e+02       1.40349e+00       1.38948e+00       1.20704e-03       1.01364e+03
  0.100      2.91959e+02       1.39494e+00       1.39000e+00       1.19552e-03       1.00176e+03
  0.200      2.91315e+02       1.38727e+00       1.38927e+00       1.18413e-03       9.90020e+02
  0.300      2.90674e+02       1.37458e+00       1.39564e+00       1.17282e-03       9.78406e+02
  0.400      2.90038e+02       1.35074e+00       1.41554e+00       1.16157e-03       9.66903e+02
  0.500      2.89397e+02       1.30742e+00       1.43628e+00       1.15043e-03       9.55507e+02
  0.600      2.88732e+02       1.23573e+00       1.43603e+00       1.13946e-03       9.44226e+02
  0.700      2.88042e+02       1.14228e+00       1.43569e+00       1.12868e-03       9.33059e+02
  0.800      2.87339e+02       1.04881e+00       1.49708e+00       1.11803e-03       9.22003e+02
  0.900      2.86644e+02       9.88894e-01       1.63222e+00       1.10744e-03       9.11055e+02
  1.000      2.85985e+02       1.01662e+00       1.75891e+00       1.09679e-03       9.00219e+02
  1.100      2.85380e+02       1.15610e+00       1.80397e+00       1.08603e-03       8.89499e+02
  1.200      2.84793e+02       1.29479e+00       1.77524e+00       1.07529e-03       8.78893e+02
  1.300      2.84181e+02       1.29613e+00       1.70318e+00       1.06473e-03       8.68396e+02
  1.400      2.83556e+02       1.18725e+00       1.63318e+00       1.05431e-03       8.58007e+02
  1.500      2.82973e+02       1.11125e+00       1.62099e+00       1.04383e-03       8.47726e+02
  1.600      2.82478e+02       1.15951e+00       1.69168e+00       1.03311e-03       8.37552e+02
  1.700      2.82102e+02       1.30964e+00       1.80537e+00       1.02205e-03       8.27487e+02
  1.800      2.81861e+02       1.52027e+00       1.90991e+00       1.01062e-03       8.17533e+02
  1.900      2.81695e+02       1.70935e+00       1.91757e+00       9.99045e-04       8.07691e+02
  2.000      2.81497e+02       1.77423e+00       1.72268e+00       9.87710e-04       7.97968e+02
  2.100      2.81189e+02       1.65402e+00       1.27875e+00       9.76889e-04       7.88360e+02
  2.200      2.80741e+02       1.37879e+00       6.67972e-01       9.66654e-04       7.78859e+02
  2.300      2.80136e+02       9.90671e-01      -1.11317e-02       9.57040e-04       7.69451e+02
  2.400      2.79408e+02       5.33888e-01      -6.68099e-01       9.47914e-04       7.60132e+02
  2.500      2.78632e+02       5.43007e-02      -1.21882e+00       9.39013e-04       7.50903e+02
  2.600      2.77876e+02      -4.01291e-01      -1.60386e+00       9.30105e-04       7.41762e+02
  2.700      2.77165e+02      -7.81283e-01      -1.89551e+00       9.21113e-04       7.32711e+02
  2.800      2.76509e+02      -1.03252e+00      -2.21016e+00       9.12005e-04       7.23749e+02
  2.900      2.75914e+02      -1.13331e+00      -2.63925e+00       9.02768e-04       7.14879e+02
  3.000      2.75378e+02      -1.14514e+00      -3.20813e+00       8.93418e-04       7.06100e+02
  3.100      2.74894e+02      -1.14266e+00      -3.93090e+00       8.83980e-04       6.97413e+02
  3.200      2.74437e+02      -1.16739e+00      -4.78379e+00       8.74541e-04       6.88818e+02
  3.300      2.73944e+02      -1.20448e+00      -5.67870e+00       8.65295e-04       6.80312e+02
  3.400      2.73352e+02      -1.23375e+00      -6.52199e+00       8.56436e-04       6.71892e+02
  3.500      2.72640e+02      -1.24061e+00      -7.25454e+00       8.48021e-04       6.63555e+02
  3.600      2.71845e+02      -1.21836e+00      -7.86562e+00       8.39921e-04       6.55302e+02
  3.700      2.71011e+02      -1.16102e+00      -8.34837e+00       8.31998e-04       6.47128e+02
  3.800      2.70164e+02      -1.06997e+00      -8.70494e+00       8.24167e-04       6.39034e+02
  3.900      2.69306e+02      -9.57444e-01      -8.95088e+00       8.16420e-04       6.31017e+02
  4.000      2.68437e+02      -8.36495e-01      -9.10281e+00       8.08752e-04       6.23073e+02
  4.100      2.67557e+02      -7.17256e-01      -9.17763e+00       8.01161e-04       6.15203e+02
  4.200      2.66667e+02      -6.04048e-01      -9.19287e+00       7.93647e-04       6.07406e+02
  4.300      2.65768e+02      -5.00509e-01      -9.16611e+00       7.86207e-04       5.99682e+02
  4.400      2.64861e+02      -4.07981e-01      -9.11170e+00       7.78835e-04       5.92033e+02
  4.500      2.63959e+02      -3.19671e-01      -9.03254e+00       7.71495e-04       5.84456e+02
  4.600      2.63075e+02      -2.26995e-01      -8.92897e+00       7.64147e-04       5.76951e+02
  4.700      2.62221e+02      -1.22620e-01      -8.80186e+00       7.56757e-04       5.69516e+02
  4.800      2.61396e+02      -1.05595e-02      -8.65648e+00       7.49331e-04       5.62152e+02
  4.900      2.60592e+02       9.91442e-02      -8.50051e+00       7.41893e-04       5.54861e+02
  5.000      2.59803e+02       1.96555e-01      -8.34158e+00       7.34469e-04       5.47645e+02
  5.100      2.59022e+02       2.81747e-01      -8.18607e+00       7.27076e-04       5.40503e+02
  5.200      2.58245e+02       3.70555e-01      -8.03829e+00       7.19727e-04       5.33436e+02
  5.300      2.57469e+02       4.80197e-01      -7.90238e+00       7.12427e-04       5.26439e+02
  5.400      2.56691e+02       6.25486e-01      -7.78230e+00       7.05185e-04       5.19512e+02
  5.500      2.55915e+02       8.03053e-01      -7.68062e+00       6.97989e-04       5.12655e+02
  5.600      2.55146e+02       1.00122e+00      -7.59924e+00       6.90820e-04       5.05867e+02
  5.700      2.54393e+02       1.20828e+00      -7.54009e+00       6.83663e-04       4.99147e+02
  5.800      2.53659e+02       1.41262e+00      -7.50156e+00       6.76503e-04       4.92495e+02
  5.900      2.52945e+02       1.60292e+00      -7.47247e+00       6.69347e-04       4.85913e+02
  6.000      2.52249e+02       1.76793e+00      -7.44001e+00       6.62199e-04       4.79402e+02
  6.100      2.51571e+02       1.89654e+00      -7.39138e+00       6.55065e-04       4.72962e+02
  6.200      2.50908e+02       1.98673e+00      -7.31540e+00       6.47952e-04       4.66594e+02
  6.300      2.50258e+02       2.05122e+00      -7.20350e+00       6.40868e-04       4.60297e+02
  6.400      2.49616e+02       2.10408e+00      -7.04735e+00       6.33821e-04       4.54069e+02
  6.500      2.48980e+02       2.15924e+00      -6.83879e+00       6.26819e-04       4.47909e+02
  6.600      2.48345e+02       2.22439e+00      -6.57934e+00       6.19875e-04       4.41816e+02
  6.700      2.47702e+02       2.29767e+00      -6.28519e+00       6.13008e-04       4.35790e+02
  6.800      2.47043e+02       2.37644e+00      -5.97379e+00       6.06236e-04       4.29830e+02
  6.900      2.46361e+02       2.45805e+00      -5.66258e+00       5.99580e-04       4.23936e+02
  7.000      2.45649e+02       2.54544e+00      -5.36865e+00       5.93048e-04       4.18106e+02
  7.100      2.44910e+02       2.65462e+00      -5.10833e+00       5.86633e-04       4.12340e+02
  7.200      2.44149e+02       2.80348e+00      -4.89782e+00       5.80323e-04       4.06637e+02
  7.300      2.43368e+02       3.00989e+00      -4.75331e+00       5.74108e-04       4.00994e+02
  7.400      2.42570e+02       3.28721e+00      -4.68764e+00       5.67976e-04       3.95412e+02
  7.500      2.41760e+02       3.61766e+00      -4.69033e+00       5.61919e-04       3.89889e+02
  7.600      2.40943e+02       3.97036e+00      -4.74112e+00       5.55925e-04       3.84425e+02
  7.700      2.40121e+02       4.31439e+00      -4.81971e+00       5.49984e-04       3.79020e+02
  7.800      2.39299e+02       4.61896e+00      -4.90585e+00       5.44087e-04       3.73672e+02
  7.900      2.38480e+02       4.86963e+00      -4.98417e+00       5.38227e-04       3.68383e+02
  8.000      2.37666e+02       5.08374e+00      -5.04877e+00       5.32399e-04       3.63151e+02
  8.100      2.36859e+02       5.28233e+00      -5.09487e+00       5.26602e-04       3.57976e+02
  8.200      2.36059e+02       5.48641e+00      -5.11767e+00       5.20832e-04       3.52858e+02
  8.300      2.35268e+02       5.71652e+00      -5.11247e+00       5.15087e-04       3.47797e+02
  8.400      2.34484e+02       5.97842e+00      -5.07737e+00       5.09371e-04       3.42791e+02
  8.500      2.33702e+02       6.26039e+00      -5.01375e+00       5.03696e-04       3.37841e+02
  8.600      2.32915e+02       6.54972e+00      -4.92322e+00       4.98074e-04       3.32946e+02
  8.700      2.32119e+02       6.83368e+00      -4.80737e+00       4.92517e-04       3.28106e+02
  8.800      2.31308e+02       7.09968e+00      -4.66791e+00       4.87034e-04       3.23319e+02
  8.900      2.30481e+02       7.34146e+00      -4.51383e+00       4.81627e-04       3.18586e+02
  9.000      2.29643e+02       7.56211e+00      -4.36481e+00       4.76281e-04       3.13906e+02
  9.100      2.28803e+02       7.76546e+00      -4.24138e+00       4.70983e-04       3.09278e+02
  9.200      2.27966e+02       7.95535e+00      -4.16407e+00       4.65718e-04       3.04702e+02
  9.300      2.27139e+02       8.13562e+00      -4.15341e+00       4.60473e-04       3.00178e+02
  9.400      2.26328e+02       8.30910e+00      -4.22381e+00       4.55237e-04       2.95705e+02
  9.500      2.25529e+02       8.47411e+00      -4.36211e+00       4.50018e-04       2.91282e+02
  9.600      2.24735e+02       8.62770e+00      -4.54742e+00       4.44830e-04       2.86910e+02
  9.700      2.23940e+02       8.76690e+00      -4.75880e+00       4.39685e-04       2.82589e+02
  9.800      2.23139e+02       8.88877e+00      -4.97535e+00       4.34593e-04       2.78317e+02
  9.900      2.22325e+02       8.99037e+00      -5.17622e+00       4.29567e-04       2.74095e+02
 10.000      2.21496e+02       9.07184e+00      -5.35112e+00       4.24611e-04       2.69922e+02
 10.100      2.20657e+02       9.13985e+00      -5.51238e+00       4.19713e-04       2.65798e+02
 10.200      2.19814e+02       9.20194e+00      -5.67520e+00       4.14862e-04       2.61722e+02
 10.300      2.18973e+02       9.26564e+00      -5.85482e+00       4.10045e-04       2.57694e+02
 10.400      2.18141e+02       9.33847e+00      -6.06646e+00       4.05251e-04       2.53714e+02
 10.500      2.17324e+02       9.42796e+00      -6.32534e+00       4.00470e-04       2.49780e+02
 10.600      2.16524e+02       9.54140e+00      -6.64044e+00       3.95694e-04       2.45894e+02
 10.700      2.15737e+02       9.68521e+00      -6.99961e+00       3.90935e-04       2.42054e+02
 10.800      2.14955e+02       9.86562e+00      -7.38624e+00       3.86208e-04       2.38259e+02
 10.900      2.14169e+02       1.00889e+01      -7.78372e+00       3.81524e-04       2.34510e+02
 11.000      2.13373e+02       1.03613e+01      -8.17546e+00       3.76898e-04       2.30805e+02
 11.100      2.12558e+02       1.06890e+01      -8.54484e+00       3.72341e-04       2.27144e+02
 11.200      2.11718e+02       1.10779e+01      -8.87540e+00       3.67866e-04       2.23526e+02
 11.300      2.10860e+02       1.15189e+01      -9.15598e+00       3.63458e-04       2.19953e+02
 11.400      2.10013e+02       1.19843e+01      -9.38216e+00       3.59068e-04       2.16423e+02
 11.500      2.09206e+02       1.24450e+01      -9.54996e+00       3.54648e-04       2.12938e+02
 11.600      2.08469e+02       1.28718e+01      -9.65538e+00       3.50153e-04       2.09499e+02
 11.700      2.07832e+02       1.32357e+01      -9.69444e+00       3.45538e-04       2.06106e+02
 11.800      2.07324e+02       1.35076e+01      -9.66315e+00       3.40760e-04       2.02759e+02
 11.900      2.06974e+02       1.36586e+01      -9.55752e+00       3.35780e-04       1.99458e+02
 12.000      2.06798e+02       1.36729e+01      -9.37513e+00       3.30583e-04       1.96205e+02
 12.100      2.06783e+02       1.35678e+01      -9.11738e+00       3.25209e-04       1.93001e+02
 12.200      2.06907e+02       1.33658e+01      -8.78624e+00       3.19703e-04       1.89847e+02
 12.300      2.07150e+02       1.30889e+01      -8.38368e+00       3.14110e-04       1.86745e+02
 12.400      2.07492e+02       1.27596e+01      -7.91168e+00       3.08472e-04       1.83696e+02
 12.500      2.07913e+02       1.24001e+01      -7.37221e+00       3.02829e-04       1.80702e+02
 12.600      2.08393e+02       1.20327e+01      -6.76726e+00       2.97217e-04       1.77762e+02
 12.700      2.08912e+02       1.16797e+01      -6.09879e+00       2.91671e-04       1.74880e+02
 12.800      2.09453e+02       1.13592e+01      -5.37252e+00       2.86217e-04       1.72054e+02
 12.900      2.10009e+02       1.10738e+01      -4.60739e+00       2.80863e-04       1.69283e+02
 13.000      2.10576e+02       1.08233e+01      -3.82521e+00       2.75611e-04       1.66567e+02
 13.100      2.11151e+02       1.06071e+01      -3.04781e+00       2.70465e-04       1.63903e+02
 13.200      2.11731e+02       1.04247e+01      -2.29704e+00       2.65426e-04       1.61291e+02
 13.300      2.12310e+02       1.02758e+01      -1.59472e+00       2.60497e-04       1.58729e+02
 13.400      2.12886e+02       1.01597e+01      -9.62676e-01       2.55679e-04       1.56216e+02
 13.500      2.13455e+02       1.00761e+01      -4.22739e-01       2.50974e-04       1.53750e+02
 13.600      2.14012e+02       1.00245e+01       3.25865e-03       2.46382e-04       1.51331e+02
 13.700      2.14554e+02       1.00043e+01       2.94082e-01       2.41904e-04       1.48957e+02
 13.800      2.15076e+02       1.00134e+01       4.46966e-01       2.37542e-04       1.46627e+02
 13.900      2.15574e+02       1.00475e+01       4.80643e-01       2.33294e-04       1.44339e+02
 14.000      2.16043e+02       1.01022e+01       4.15058e-01       2.29161e-04       1.42090e+02
 14.100      2.16476e+02       1.01733e+01       2.70159e-01       2.25142e-04       1.39878e+02
 14.200      2.16870e+02       1.02564e+01       6.58931e-02       2.21236e-04       1.37701e+02
 14.300      2.17219e+02       1.03472e+01      -1.77796e-01       2.17444e-04       1.35559e+02
 14.400      2.17518e+02       1.04413e+01      -4.40958e-01       2.13764e-04       1.33448e+02
 14.500      2.17762e+02       1.05345e+01      -7.03651e-01       2.10196e-04       1.31368e+02
 14.600      2.17946e+02       1.06224e+01      -9.45926e-01       2.06739e-04       1.29316e+02
 14.700      2.18064e+02       1.07006e+01      -1.14783e+00       2.03392e-04       1.27291e+02
 14.800      2.18112e+02       1.07649e+01      -1.28943e+00       2.00154e-04       1.25293e+02
 14.900      2.18086e+02       1.08114e+01      -1.35368e+00       1.97025e-04       1.23319e+02
 15.000      2.17990e+02       1.08399e+01      -1.34175e+00       1.93996e-04       1.21370e+02
 15.100      2.17833e+02       1.08514e+01      -1.26183e+00       1.91061e-04       1.19448e+02
 15.200      2.17622e+02       1.08469e+01      -1.12213e+00       1.88212e-04       1.17552e+02
 15.300      2.17364e+02       1.08274e+01      -9.30874e-01       1.85440e-04       1.15684e+02
 15.400      2.17069e+02       1.07939e+01      -6.96270e-01       1.82741e-04       1.13845e+02
 15.500      2.16744e+02       1.07476e+01      -4.26528e-01       1.80106e-04       1.12036e+02
 15.600      2.16396e+02       1.06894e+01      -1.29862e-01       1.77530e-04       1.10256e+02
 15.700      2.16033e+02       1.06204e+01       1.85511e-01       1.75007e-04       1.08507e+02
 15.800      2.15664e+02       1.05415e+01       5.11385e-01       1.72531e-04       1.06789e+02
 15.900      2.15296e+02       1.04538e+01       8.39541e-01       1.70097e-04       1.05103e+02
 16.000      2.14938e+02       1.03584e+01       1.16177e+00       1.67699e-04       1.03448e+02
 16.100      2.14596e+02       1.02563e+01       1.46986e+00       1.65332e-04       1.01826e+02
 16.200      2.14278e+02       1.01485e+01       1.75560e+00       1.62992e-04       1.00237e+02
 16.300      2.13993e+02       1.00359e+01       2.01175e+00       1.60674e-04       9.86795e+01
 16.400      2.13740e+02       9.91890e+00       2.23727e+00       1.58378e-04       9.71540e+01
 16.500      2.13518e+02       9.79763e+00       2.43352e+00       1.56102e-04       9.56586e+01
 16.600      2.13325e+02       9.67218e+00       2.60187e+00       1.53847e-04       9.41919e+01
 16.700      2.13161e+02       9.54269e+00       2.74368e+00       1.51613e-04       9.27524e+01
 16.800      2.13024e+02       9.40929e+00       2.86034e+00       1.49399e-04       9.13390e+01
 16.900      2.12911e+02       9.27207e+00       2.95321e+00       1.47205e-04       8.99504e+01
 17.000      2.12823e+02       9.13118e+00       3.02365e+00       1.45031e-04       8.85853e+01
 17.100      2.12757e+02       8.98673e+00       3.07305e+00       1.42877e-04       8.72428e+01
 17.200      2.12712e+02       8.83883e+00       3.10276e+00       1.40743e-04       8.59216e+01
 17.300      2.12687e+02       8.68763e+00       3.11416e+00       1.38629e-04       8.46208e+01
 17.400      2.12680e+02       8.53322e+00       3.10861e+00       1.36534e-04       8.33393e+01
 17.500      2.12689e+02       8.37575e+00       3.08750e+00       1.34459e-04       8.20763e+01
 17.600      2.12714e+02       8.21531e+00       3.05217e+00       1.32404e-04       8.08308e+01
 17.700      2.12752e+02       8.05204e+00       3.00402e+00       1.30367e-04       7.96021e+01
 17.800      2.12802e+02       7.88607e+00       2.94440e+00       1.28351e-04       7.83892e+01
 17.900      2.12864e+02       7.71750e+00       2.87468e+00       1.26353e-04       7.71915e+01
 18.000      2.12934e+02       7.54647e+00       2.79624e+00       1.24375e-04       7.60081e+01
 18.100      2.13013e+02       7.37308e+00       2.71045e+00       1.22415e-04       7.48384e+01
 18.200      2.13098e+02       7.19747e+00       2.61866e+00       1.20475e-04       7.36817e+01
 18.300      2.13188e+02       7.01975e+00       2.52226e+00       1.18554e-04       7.25375e+01
 18.400      2.13282e+02       6.84005e+00       2.42262e+00       1.16652e-04       7.14050e+01
 18.500      2.13378e+02       6.65848e+00       2.32109e+00       1.14769e-04       7.02838e+01
 18.600      2.13475e+02       6.47515e+00       2.21898e+00       1.12904e-04       6.91735e+01
 18.700      2.13572e+02       6.28996e+00       2.11689e+00       1.11060e-04       6.80742e+01
 18.800      2.13669e+02       6.10271e+00       2.01508e+00       1.09236e-04       6.69866e+01
 18.900      2.13766e+02       5.91319e+00       1.91378e+00       1.07433e-04       6.59113e+01
 19.000      2.13863e+02       5.72122e+00       1.81325e+00       1.05654e-04       6.48489e+01
 19.100      2.13960e+02       5.52659e+00       1.71374e+00       1.03897e-04       6.37997e+01
 19.200      2.14056e+02       5.32909e+00       1.61549e+00       1.02165e-04       6.27644e+01
 19.300      2.14152e+02       5.12854e+00       1.51875e+00       1.00458e-04       6.17433e+01
 19.400      2.14248e+02       4.92473e+00       1.42377e+00       9.87764e-05       6.07367e+01
 19.500      2.14342e+02       4.71746e+00       1.33080e+00       9.71209e-05       5.97452e+01
 19.600      2.14436e+02       4.50653e+00       1.24007e+00       9.54920e-05       5.87689e+01
 19.700      2.14529e+02       4.29174e+00       1.15185e+00       9.38902e-05       5.78082e+01
 19.800      2.14621e+02       4.07289e+00       1.06637e+00       9.23160e-05       5.68633e+01
 19.900      2.14712e+02       3.84979e+00       9.83895e-01       9.07696e-05       5.59344e+01
 20.000      2.14802e+02       3.62222e+00       9.04657e-01       8.92515e-05       5.50219e+01
 20.100      2.14890e+02       3.39000e+00       8.28910e-01       8.77618e-05       5.41257e+01
 20.200      2.14977e+02       3.15292e+00       7.56901e-01       8.63009e-05       5.32462e+01
 20.300      2.15062e+02       2.91078e+00       6.88878e-01       8.48688e-05       5.23833e+01
