# Data Source: NASA MERRA (version 2)
# Model Calculated 2019-07-18 21:20:34
# Model Time = 2011-09-03 18:00:00
# Location = [  39.1026,  -84.5123 ]
# Fields = [ Z(km), T(K), U(m/s), V(m/s), R(g/cm3), P(mbar) ]
# Ground Height = 0.165
  0.000      3.09653e+02       5.47458e-01       1.78051e+00       1.13914e-03       1.01236e+03
  0.100      3.08957e+02       5.78091e-01       1.79659e+00       1.12894e-03       1.00104e+03
  0.200      3.08271e+02       6.07872e-01       1.81162e+00       1.11879e-03       9.89837e+02
  0.300      3.07488e+02       6.46043e-01       1.83699e+00       1.10913e-03       9.78801e+02
  0.400      3.06510e+02       7.00380e-01       1.88178e+00       1.10035e-03       9.67962e+02
  0.500      3.05366e+02       7.60650e-01       1.92668e+00       1.09230e-03       9.57290e+02
  0.600      3.04164e+02       8.04705e-01       1.93360e+00       1.08449e-03       9.46711e+02
  0.700      3.02980e+02       8.22763e-01       1.88465e+00       1.07663e-03       9.36187e+02
  0.800      3.01823e+02       8.25738e-01       1.79575e+00       1.06869e-03       9.25732e+02
  0.900      3.00704e+02       8.29184e-01       1.68597e+00       1.06065e-03       9.15359e+02
  1.000      2.99636e+02       8.62077e-01       1.57443e+00       1.05246e-03       9.05070e+02
  1.100      2.98639e+02       9.56380e-01       1.47988e+00       1.04407e-03       8.94863e+02
  1.200      2.97710e+02       1.11806e+00       1.41262e+00       1.03547e-03       8.84736e+02
  1.300      2.96830e+02       1.32740e+00       1.37458e+00       1.02675e-03       8.74692e+02
  1.400      2.95976e+02       1.56356e+00       1.36732e+00       1.01799e-03       8.64731e+02
  1.500      2.95128e+02       1.80571e+00       1.39243e+00       1.00925e-03       8.54855e+02
  1.600      2.94265e+02       2.03335e+00       1.45141e+00       1.00062e-03       8.45064e+02
  1.700      2.93380e+02       2.23313e+00       1.54448e+00       9.92112e-04       8.35359e+02
  1.800      2.92482e+02       2.39877e+00       1.67053e+00       9.83696e-04       8.25738e+02
  1.900      2.91579e+02       2.52429e+00       1.82843e+00       9.75345e-04       8.16199e+02
  2.000      2.90679e+02       2.60369e+00       2.01704e+00       9.67026e-04       8.06741e+02
  2.100      2.89791e+02       2.63111e+00       2.23517e+00       9.58713e-04       7.97363e+02
  2.200      2.88924e+02       2.61049e+00       2.47814e+00       9.50378e-04       7.88065e+02
  2.300      2.88086e+02       2.56325e+00       2.73504e+00       9.41994e-04       7.78847e+02
  2.400      2.87286e+02       2.51263e+00       2.99432e+00       9.33536e-04       7.69712e+02
  2.500      2.86534e+02       2.48184e+00       3.24443e+00       9.24982e-04       7.60660e+02
  2.600      2.85837e+02       2.49412e+00       3.47381e+00       9.16307e-04       7.51694e+02
  2.700      2.85202e+02       2.56961e+00       3.67229e+00       9.07497e-04       7.42813e+02
  2.800      2.84617e+02       2.70647e+00       3.83947e+00       8.98595e-04       7.34018e+02
  2.900      2.84062e+02       2.89325e+00       3.97925e+00       8.89668e-04       7.25308e+02
  3.000      2.83516e+02       3.11848e+00       4.09552e+00       8.80779e-04       7.16683e+02
  3.100      2.82960e+02       3.37068e+00       4.19219e+00       8.71993e-04       7.08140e+02
  3.200      2.82372e+02       3.63838e+00       4.27316e+00       8.63368e-04       6.99680e+02
  3.300      2.81737e+02       3.91371e+00       4.34287e+00       8.54952e-04       6.91302e+02
  3.400      2.81054e+02       4.20180e+00       4.40771e+00       8.46744e-04       6.83004e+02
  3.500      2.80323e+02       4.51064e+00       4.47447e+00       8.38735e-04       6.74784e+02
  3.600      2.79546e+02       4.84823e+00       4.54997e+00       8.30915e-04       6.66640e+02
  3.700      2.78725e+02       5.22259e+00       4.64101e+00       8.23276e-04       6.58571e+02
  3.800      2.77861e+02       5.64171e+00       4.75440e+00       8.15809e-04       6.50575e+02
  3.900      2.76959e+02       6.10962e+00       4.89442e+00       8.08496e-04       6.42650e+02
  4.000      2.76039e+02       6.61065e+00       5.05289e+00       8.01275e-04       6.34797e+02
  4.100      2.75129e+02       7.12301e+00       5.21771e+00       7.94073e-04       6.27016e+02
  4.200      2.74252e+02       7.62489e+00       5.37681e+00       7.86818e-04       6.19307e+02
  4.300      2.73435e+02       8.09451e+00       5.51810e+00       7.79437e-04       6.11670e+02
  4.400      2.72704e+02       8.51008e+00       5.62950e+00       7.71863e-04       6.04107e+02
  4.500      2.72084e+02       8.85016e+00       5.69912e+00       7.64030e-04       5.96616e+02
  4.600      2.71578e+02       9.10442e+00       5.72054e+00       7.55939e-04       5.89200e+02
  4.700      2.71165e+02       9.27498e+00       5.69354e+00       7.47657e-04       5.81860e+02
  4.800      2.70825e+02       9.36465e+00       5.61823e+00       7.39251e-04       5.74596e+02
  4.900      2.70536e+02       9.37625e+00       5.49472e+00       7.30790e-04       5.67412e+02
  5.000      2.70275e+02       9.31258e+00       5.32311e+00       7.22337e-04       5.60308e+02
  5.100      2.70021e+02       9.17645e+00       5.10351e+00       7.13955e-04       5.53286e+02
  5.200      2.69752e+02       8.97102e+00       4.83626e+00       7.05701e-04       5.46347e+02
  5.300      2.69457e+02       8.70664e+00       4.52628e+00       6.97608e-04       5.39489e+02
  5.400      2.69128e+02       8.40032e+00       4.18277e+00       6.89684e-04       5.32711e+02
  5.500      2.68762e+02       8.06932e+00       3.81507e+00       6.81937e-04       5.26010e+02
  5.600      2.68353e+02       7.73090e+00       3.43254e+00       6.74374e-04       5.19384e+02
  5.700      2.67895e+02       7.40234e+00       3.04452e+00       6.67003e-04       5.12831e+02
  5.800      2.67384e+02       7.10090e+00       2.66039e+00       6.59830e-04       5.06348e+02
  5.900      2.66814e+02       6.84384e+00       2.28947e+00       6.52862e-04       4.99934e+02
  6.000      2.66184e+02       6.64302e+00       1.94101e+00       6.46099e-04       4.93586e+02
  6.100      2.65499e+02       6.48925e+00       1.62367e+00       6.39519e-04       4.87303e+02
  6.200      2.64771e+02       6.36828e+00       1.34602e+00       6.33093e-04       4.81083e+02
  6.300      2.64009e+02       6.26584e+00       1.11663e+00       6.26793e-04       4.74925e+02
  6.400      2.63222e+02       6.16768e+00       9.44053e-01       6.20595e-04       4.68827e+02
  6.500      2.62421e+02       6.05953e+00       8.36850e-01       6.14471e-04       4.62787e+02
  6.600      2.61615e+02       5.92713e+00       8.03584e-01       6.08397e-04       4.56805e+02
  6.700      2.60814e+02       5.75621e+00       8.52813e-01       6.02349e-04       4.50879e+02
  6.800      2.60026e+02       5.53527e+00       9.90535e-01       5.96306e-04       4.45009e+02
  6.900      2.59253e+02       5.27012e+00       1.20658e+00       5.90270e-04       4.39195e+02
  7.000      2.58492e+02       4.97329e+00       1.48453e+00       5.84251e-04       4.33440e+02
  7.100      2.57741e+02       4.65733e+00       1.80793e+00       5.78257e-04       4.27747e+02
  7.200      2.56997e+02       4.33479e+00       2.16033e+00       5.72299e-04       4.22117e+02
  7.300      2.56259e+02       4.01821e+00       2.52529e+00       5.66383e-04       4.16553e+02
  7.400      2.55523e+02       3.72016e+00       2.88636e+00       5.60520e-04       4.11057e+02
  7.500      2.54787e+02       3.45317e+00       3.22711e+00       5.54716e-04       4.05630e+02
  7.600      2.54050e+02       3.22979e+00       3.53107e+00       5.48979e-04       4.00273e+02
  7.700      2.53309e+02       3.05996e+00       3.78455e+00       5.43315e-04       3.94988e+02
  7.800      2.52564e+02       2.94141e+00       3.98666e+00       5.37712e-04       3.89766e+02
  7.900      2.51818e+02       2.86829e+00       4.14022e+00       5.32156e-04       3.84599e+02
  8.000      2.51070e+02       2.83477e+00       4.24807e+00       5.26635e-04       3.79478e+02
  8.100      2.50322e+02       2.83501e+00       4.31306e+00       5.21135e-04       3.74396e+02
  8.200      2.49575e+02       2.86319e+00       4.33800e+00       5.15644e-04       3.69346e+02
  8.300      2.48830e+02       2.91346e+00       4.32575e+00       5.10150e-04       3.64319e+02
  8.400      2.48087e+02       2.97998e+00       4.27913e+00       5.04641e-04       3.59310e+02
  8.500      2.47349e+02       3.05693e+00       4.20098e+00       4.99106e-04       3.54311e+02
  8.600      2.46615e+02       3.13847e+00       4.09414e+00       4.93536e-04       3.49318e+02
  8.700      2.45888e+02       3.22133e+00       3.96171e+00       4.87931e-04       3.44332e+02
  8.800      2.45167e+02       3.30913e+00       3.80745e+00       4.82319e-04       3.39374e+02
  8.900      2.44455e+02       3.40658e+00       3.63527e+00       4.76732e-04       3.34468e+02
  9.000      2.43752e+02       3.51842e+00       3.44906e+00       4.71200e-04       3.29637e+02
  9.100      2.43060e+02       3.64939e+00       3.25271e+00       4.65753e-04       3.24901e+02
  9.200      2.42379e+02       3.80421e+00       3.05012e+00       4.60418e-04       3.20280e+02
  9.300      2.41711e+02       3.98762e+00       2.84517e+00       4.55221e-04       3.15791e+02
  9.400      2.41057e+02       4.20435e+00       2.64178e+00       4.50187e-04       3.11454e+02
  9.500      2.40417e+02       4.45914e+00       2.44382e+00       4.45340e-04       3.07284e+02
  9.600      2.39794e+02       4.75671e+00       2.25519e+00       4.40703e-04       3.03296e+02
  9.700      2.39188e+02       5.10179e+00       2.07979e+00       4.36297e-04       2.99505e+02
  9.800      2.38599e+02       5.49648e+00       1.92029e+00       4.32133e-04       2.95916e+02
  9.900      2.38026e+02       5.93575e+00       1.77612e+00       4.28190e-04       2.92511e+02
 10.000      2.37465e+02       6.41341e+00       1.64614e+00       4.24444e-04       2.89269e+02
 10.100      2.36914e+02       6.92327e+00       1.52923e+00       4.20872e-04       2.86169e+02
 10.200      2.36371e+02       7.45912e+00       1.42425e+00       4.17451e-04       2.83192e+02
 10.300      2.35832e+02       8.01476e+00       1.33010e+00       4.14161e-04       2.80320e+02
 10.400      2.35295e+02       8.58400e+00       1.24562e+00       4.10980e-04       2.77534e+02
 10.500      2.34758e+02       9.16064e+00       1.16971e+00       4.07888e-04       2.74817e+02
 10.600      2.34218e+02       9.73848e+00       1.10123e+00       4.04865e-04       2.72153e+02
 10.700      2.33672e+02       1.03113e+01       1.03906e+00       4.01894e-04       2.69526e+02
 10.800      2.33118e+02       1.08730e+01       9.82067e-01       3.98956e-04       2.66921e+02
 10.900      2.32553e+02       1.14172e+01       9.29126e-01       3.96033e-04       2.64323e+02
 11.000      2.31975e+02       1.19379e+01       8.79109e-01       3.93108e-04       2.61718e+02
 11.100      2.31380e+02       1.24287e+01       8.30891e-01       3.90164e-04       2.59092e+02
 11.200      2.30767e+02       1.28836e+01       7.83344e-01       3.87186e-04       2.56433e+02
 11.300      2.30132e+02       1.32963e+01       7.35341e-01       3.84158e-04       2.53728e+02
 11.400      2.29473e+02       1.36606e+01       6.85756e-01       3.81066e-04       2.50966e+02
 11.500      2.28788e+02       1.39708e+01       6.33641e-01       3.77896e-04       2.48135e+02
 11.600      2.28077e+02       1.42282e+01       5.80221e-01       3.74640e-04       2.45232e+02
 11.700      2.27343e+02       1.44384e+01       5.28162e-01       3.71295e-04       2.42261e+02
 11.800      2.26589e+02       1.46072e+01       4.80156e-01       3.67858e-04       2.39222e+02
 11.900      2.25817e+02       1.47402e+01       4.38896e-01       3.64326e-04       2.36118e+02
 12.000      2.25029e+02       1.48432e+01       4.07073e-01       3.60698e-04       2.32951e+02
 12.100      2.24229e+02       1.49220e+01       3.87379e-01       3.56970e-04       2.29724e+02
 12.200      2.23419e+02       1.49823e+01       3.82507e-01       3.53141e-04       2.26439e+02
 12.300      2.22602e+02       1.50299e+01       3.95149e-01       3.49210e-04       2.23098e+02
 12.400      2.21779e+02       1.50705e+01       4.27996e-01       3.45174e-04       2.19705e+02
 12.500      2.20955e+02       1.51098e+01       4.83741e-01       3.41032e-04       2.16263e+02
 12.600      2.20131e+02       1.51535e+01       5.65076e-01       3.36785e-04       2.12773e+02
 12.700      2.19310e+02       1.52076e+01       6.74692e-01       3.32431e-04       2.09239e+02
 12.800      2.18495e+02       1.52775e+01       8.15283e-01       3.27970e-04       2.05664e+02
 12.900      2.17689e+02       1.53692e+01       9.89539e-01       3.23402e-04       2.02051e+02
 13.000      2.16893e+02       1.54882e+01       1.20004e+00       3.18728e-04       1.98403e+02
 13.100      2.16110e+02       1.56355e+01       1.44566e+00       3.13959e-04       1.94729e+02
 13.200      2.15342e+02       1.58065e+01       1.72093e+00       3.09114e-04       1.91042e+02
 13.300      2.14589e+02       1.59964e+01       2.02013e+00       3.04213e-04       1.87356e+02
 13.400      2.13852e+02       1.62004e+01       2.33752e+00       2.99277e-04       1.83683e+02
 13.500      2.13133e+02       1.64137e+01       2.66739e+00       2.94322e-04       1.80034e+02
 13.600      2.12433e+02       1.66314e+01       3.00400e+00       2.89365e-04       1.76421e+02
 13.700      2.11753e+02       1.68487e+01       3.34164e+00       2.84424e-04       1.72853e+02
 13.800      2.11094e+02       1.70608e+01       3.67457e+00       2.79513e-04       1.69340e+02
 13.900      2.10458e+02       1.72628e+01       3.99708e+00       2.74646e-04       1.65890e+02
 14.000      2.09845e+02       1.74498e+01       4.30344e+00       2.69837e-04       1.62511e+02
 14.100      2.09257e+02       1.76172e+01       4.58791e+00       2.65097e-04       1.59209e+02
 14.200      2.08695e+02       1.77600e+01       4.84478e+00       2.60439e-04       1.55991e+02
 14.300      2.08160e+02       1.78734e+01       5.06833e+00       2.55872e-04       1.52863e+02
 14.400      2.07654e+02       1.79525e+01       5.25282e+00       2.51407e-04       1.49830e+02
 14.500      2.07176e+02       1.79939e+01       5.39415e+00       2.47050e-04       1.46895e+02
 14.600      2.06728e+02       1.79982e+01       5.49365e+00       2.42797e-04       1.44054e+02
 14.700      2.06308e+02       1.79670e+01       5.55381e+00       2.38645e-04       1.41303e+02
 14.800      2.05917e+02       1.79019e+01       5.57711e+00       2.34588e-04       1.38637e+02
 14.900      2.05553e+02       1.78046e+01       5.56605e+00       2.30622e-04       1.36053e+02
 15.000      2.05217e+02       1.76765e+01       5.52312e+00       2.26744e-04       1.33546e+02
 15.100      2.04907e+02       1.75194e+01       5.45079e+00       2.22949e-04       1.31112e+02
 15.200      2.04624e+02       1.73348e+01       5.35155e+00       2.19234e-04       1.28749e+02
 15.300      2.04367e+02       1.71244e+01       5.22790e+00       2.15594e-04       1.26453e+02
 15.400      2.04135e+02       1.68896e+01       5.08231e+00       2.12028e-04       1.24221e+02
 15.500      2.03929e+02       1.66322e+01       4.91728e+00       2.08531e-04       1.22048e+02
 15.600      2.03748e+02       1.63538e+01       4.73528e+00       2.05101e-04       1.19934e+02
 15.700      2.03591e+02       1.60559e+01       4.53882e+00       2.01735e-04       1.17875e+02
 15.800      2.03458e+02       1.57401e+01       4.33037e+00       1.98430e-04       1.15868e+02
 15.900      2.03348e+02       1.54080e+01       4.11242e+00       1.95183e-04       1.13910e+02
 16.000      2.03262e+02       1.50614e+01       3.88746e+00       1.91992e-04       1.12001e+02
 16.100      2.03198e+02       1.47016e+01       3.65798e+00       1.88854e-04       1.10136e+02
 16.200      2.03157e+02       1.43305e+01       3.42645e+00       1.85768e-04       1.08314e+02
 16.300      2.03137e+02       1.39494e+01       3.19538e+00       1.82731e-04       1.06533e+02
 16.400      2.03139e+02       1.35602e+01       2.96724e+00       1.79742e-04       1.04791e+02
 16.500      2.03162e+02       1.31643e+01       2.74451e+00       1.76797e-04       1.03086e+02
 16.600      2.03206e+02       1.27633e+01       2.52970e+00       1.73896e-04       1.01416e+02
 16.700      2.03270e+02       1.23589e+01       2.32528e+00       1.71036e-04       9.97800e+01
 16.800      2.03354e+02       1.19524e+01       2.13305e+00       1.68217e-04       9.81756e+01
 16.900      2.03456e+02       1.15441e+01       1.95290e+00       1.65437e-04       9.66019e+01
 17.000      2.03577e+02       1.11342e+01       1.78444e+00       1.62696e-04       9.50578e+01
 17.100      2.03716e+02       1.07229e+01       1.62726e+00       1.59993e-04       9.35421e+01
 17.200      2.03871e+02       1.03105e+01       1.48098e+00       1.57327e-04       9.20539e+01
 17.300      2.04043e+02       9.89719e+00       1.34518e+00       1.54699e-04       9.05922e+01
 17.400      2.04230e+02       9.48319e+00       1.21947e+00       1.52106e-04       8.91559e+01
 17.500      2.04433e+02       9.06873e+00       1.10344e+00       1.49550e-04       8.77442e+01
 17.600      2.04649e+02       8.65402e+00       9.96698e-01       1.47028e-04       8.63561e+01
 17.700      2.04879e+02       8.23930e+00       8.98839e-01       1.44542e-04       8.49909e+01
 17.800      2.05122e+02       7.82477e+00       8.09464e-01       1.42089e-04       8.36477e+01
 17.900      2.05377e+02       7.41067e+00       7.28169e-01       1.39670e-04       8.23258e+01
 18.000      2.05643e+02       6.99720e+00       6.54557e-01       1.37284e-04       8.10243e+01
 18.100      2.05920e+02       6.58460e+00       5.88225e-01       1.34931e-04       7.97426e+01
 18.200      2.06207e+02       6.17309e+00       5.28773e-01       1.32609e-04       7.84799e+01
 18.300      2.06503e+02       5.76289e+00       4.75802e-01       1.30320e-04       7.72358e+01
 18.400      2.06808e+02       5.35421e+00       4.28909e-01       1.28061e-04       7.60094e+01
 18.500      2.07121e+02       4.94729e+00       3.87693e-01       1.25834e-04       7.48002e+01
 18.600      2.07441e+02       4.54234e+00       3.51755e-01       1.23637e-04       7.36077e+01
 18.700      2.07767e+02       4.13959e+00       3.20694e-01       1.21470e-04       7.24312e+01
 18.800      2.08099e+02       3.73926e+00       2.94109e-01       1.19332e-04       7.12704e+01
 18.900      2.08437e+02       3.34156e+00       2.71598e-01       1.17223e-04       7.01245e+01
 19.000      2.08779e+02       2.94680e+00       2.52799e-01       1.15143e-04       6.89933e+01
 19.100      2.09124e+02       2.55567e+00       2.37551e-01       1.13093e-04       6.78769e+01
 19.200      2.09473e+02       2.16903e+00       2.25767e-01       1.11073e-04       6.67757e+01
 19.300      2.09823e+02       1.78772e+00       2.17358e-01       1.09084e-04       6.56897e+01
 19.400      2.10175e+02       1.41258e+00       2.12235e-01       1.07127e-04       6.46193e+01
 19.500      2.10527e+02       1.04445e+00       2.10309e-01       1.05203e-04       6.35646e+01
 19.600      2.10878e+02       6.84192e-01       2.11494e-01       1.03311e-04       6.25259e+01
 19.700      2.11229e+02       3.32636e-01       2.15699e-01       1.01453e-04       6.15032e+01
 19.800      2.11577e+02      -9.36091e-03       2.22836e-01       9.96282e-05       6.04968e+01
 19.900      2.11922e+02      -3.40967e-01       2.32818e-01       9.78379e-05       5.95067e+01
 20.000      2.12264e+02      -6.61331e-01       2.45554e-01       9.60820e-05       5.85330e+01
 20.100      2.12602e+02      -9.69608e-01       2.60958e-01       9.43609e-05       5.75758e+01
 20.200      2.12934e+02      -1.26495e+00       2.78941e-01       9.26745e-05       5.66352e+01
