# Data Source: NASA GEOS5 Near-Real-Time
# Model Time = 2010-08-19 18:00:00
# Location = [  39.7393, -104.9900 ]
# Fields = [ Z(km), T(K), U(m/s), V(m/s), R(g/cm3), P(mbar) ]
# Ground Height = 1.589
  0.000      3.09409e+02       3.83616e-01      -6.46671e-01       1.13616e-03       1.00891e+03
  0.100      3.08838e+02       3.49636e-01      -6.63264e-01       1.12497e-03       9.97138e+02
  0.200      3.08259e+02       3.19948e-01      -6.75910e-01       1.11393e-03       9.85501e+02
  0.300      3.07636e+02       3.12135e-01      -6.68450e-01       1.10318e-03       9.74011e+02
  0.400      3.06951e+02       3.32748e-01      -6.40076e-01       1.09277e-03       9.62673e+02
  0.500      3.06247e+02       3.54258e-01      -6.37443e-01       1.08255e-03       9.51484e+02
  0.600      3.05570e+02       3.49731e-01      -7.01009e-01       1.07236e-03       9.40441e+02
  0.700      3.04917e+02       3.35205e-01      -7.79280e-01       1.06220e-03       9.29540e+02
  0.800      3.04270e+02       3.40880e-01      -7.91710e-01       1.05213e-03       9.18777e+02
  0.900      3.03613e+02       3.68153e-01      -7.40088e-01       1.04221e-03       9.08149e+02
  1.000      3.02931e+02       3.94985e-01      -6.92868e-01       1.03248e-03       8.97653e+02
  1.100      3.02223e+02       3.95190e-01      -6.84787e-01       1.02295e-03       8.87287e+02
  1.200      3.01513e+02       3.35364e-01      -6.76324e-01       1.01354e-03       8.77056e+02
  1.300      3.00825e+02       1.90341e-01      -6.29071e-01       1.00416e-03       8.66961e+02
  1.400      3.00143e+02       3.08364e-03      -5.82055e-01       9.94875e-04       8.56996e+02
  1.500      2.99437e+02      -1.53031e-01      -6.08595e-01       9.85766e-04       8.47153e+02
  1.600      2.98686e+02      -2.33246e-01      -7.27016e-01       9.76897e-04       8.37425e+02
  1.700      2.97888e+02      -2.42832e-01      -8.59693e-01       9.68269e-04       8.27810e+02
  1.800      2.97043e+02      -1.93501e-01      -9.25739e-01       9.59873e-04       8.18304e+02
  1.900      2.96172e+02      -1.11413e-01      -9.08559e-01       9.51632e-04       8.08899e+02
  2.000      2.95307e+02      -3.11225e-02      -8.28913e-01       9.43429e-04       7.99585e+02
  2.100      2.94474e+02       2.17507e-02      -7.06556e-01       9.35173e-04       7.90353e+02
  2.200      2.93679e+02       5.32034e-02      -5.56117e-01       9.26855e-04       7.81207e+02
  2.300      2.92922e+02       7.62177e-02      -3.90998e-01       9.18480e-04       7.72153e+02
  2.400      2.92195e+02       1.08977e-01      -2.17147e-01       9.10080e-04       7.63192e+02
  2.500      2.91475e+02       1.78117e-01      -2.84064e-02       9.01727e-04       7.54325e+02
  2.600      2.90739e+02       3.10815e-01       1.82209e-01       8.93492e-04       7.45548e+02
  2.700      2.89966e+02       5.29042e-01       4.15418e-01       8.85433e-04       7.36859e+02
  2.800      2.89139e+02       8.49672e-01       6.65812e-01       8.77594e-04       7.28252e+02
  2.900      2.88243e+02       1.28684e+00       9.27398e-01       8.70011e-04       7.19723e+02
  3.000      2.87292e+02       1.81967e+00       1.18966e+00       8.62636e-04       7.11268e+02
  3.100      2.86323e+02       2.40167e+00       1.43877e+00       8.55360e-04       7.02889e+02
  3.200      2.85368e+02       2.98822e+00       1.66192e+00       8.48080e-04       6.94583e+02
  3.300      2.84441e+02       3.56452e+00       1.85960e+00       8.40758e-04       6.86350e+02
  3.400      2.83542e+02       4.13572e+00       2.04120e+00       8.33395e-04       6.78189e+02
  3.500      2.82670e+02       4.70624e+00       2.21590e+00       8.25995e-04       6.70100e+02
  3.600      2.81827e+02       5.26490e+00       2.38784e+00       8.18556e-04       6.62083e+02
  3.700      2.81015e+02       5.78874e+00       2.55730e+00       8.11072e-04       6.54140e+02
  3.800      2.80237e+02       6.25507e+00       2.72444e+00       8.03539e-04       6.46272e+02
  3.900      2.79491e+02       6.65724e+00       2.88835e+00       7.95967e-04       6.38477e+02
  4.000      2.78767e+02       7.00561e+00       3.04697e+00       7.88384e-04       6.30757e+02
  4.100      2.78056e+02       7.31139e+00       3.19823e+00       7.80818e-04       6.23108e+02
  4.200      2.77350e+02       7.58195e+00       3.34555e+00       7.73285e-04       6.15532e+02
  4.300      2.76651e+02       7.81728e+00       3.50307e+00       7.65790e-04       6.08029e+02
  4.400      2.75959e+02       8.01650e+00       3.68613e+00       7.58330e-04       6.00600e+02
  4.500      2.75274e+02       8.18034e+00       3.90612e+00       7.50908e-04       5.93245e+02
  4.600      2.74595e+02       8.31772e+00       4.15409e+00       7.43527e-04       5.85964e+02
  4.700      2.73918e+02       8.44021e+00       4.41460e+00       7.36192e-04       5.78754e+02
  4.800      2.73242e+02       8.55896e+00       4.67259e+00       7.28907e-04       5.71612e+02
  4.900      2.72570e+02       8.67560e+00       4.92205e+00       7.21662e-04       5.64539e+02
  5.000      2.71914e+02       8.78155e+00       5.16664e+00       7.14430e-04       5.57536e+02
  5.100      2.71284e+02       8.86773e+00       5.41052e+00       7.07184e-04       5.50603e+02
  5.200      2.70688e+02       8.92802e+00       5.65613e+00       6.99909e-04       5.43740e+02
  5.300      2.70115e+02       8.97151e+00       5.89717e+00       6.92631e-04       5.36949e+02
  5.400      2.69551e+02       9.01227e+00       6.12449e+00       6.85393e-04       5.30228e+02
  5.500      2.68979e+02       9.06432e+00       6.32898e+00       6.78235e-04       5.23577e+02
  5.600      2.68389e+02       9.13566e+00       6.50524e+00       6.71180e-04       5.16995e+02
  5.700      2.67788e+02       9.22132e+00       6.65597e+00       6.64214e-04       5.10482e+02
  5.800      2.67180e+02       9.31466e+00       6.78486e+00       6.57317e-04       5.04035e+02
  5.900      2.66573e+02       9.40912e+00       6.89571e+00       6.50473e-04       4.97654e+02
  6.000      2.65970e+02       9.50092e+00       6.99652e+00       6.43675e-04       4.91338e+02
  6.100      2.65368e+02       9.59024e+00       7.10120e+00       6.36929e-04       4.85088e+02
  6.200      2.64764e+02       9.67755e+00       7.22412e+00       6.30242e-04       4.78903e+02
  6.300      2.64155e+02       9.76333e+00       7.37944e+00       6.23622e-04       4.72784e+02
  6.400      2.63539e+02       9.84814e+00       7.57170e+00       6.17074e-04       4.66729e+02
  6.500      2.62914e+02       9.93265e+00       7.79171e+00       6.10602e-04       4.60738e+02
  6.600      2.62276e+02       1.00176e+01       8.02921e+00       6.04211e-04       4.54809e+02
  6.700      2.61623e+02       1.01036e+01       8.27393e+00       5.97903e-04       4.48941e+02
  6.800      2.60956e+02       1.01927e+01       8.51719e+00       5.91678e-04       4.43133e+02
  6.900      2.60277e+02       1.02897e+01       8.75399e+00       5.85527e-04       4.37385e+02
  7.000      2.59592e+02       1.04001e+01       8.97987e+00       5.79436e-04       4.31696e+02
  7.100      2.58905e+02       1.05291e+01       9.19037e+00       5.73397e-04       4.26067e+02
  7.200      2.58222e+02       1.06811e+01       9.38172e+00       5.67398e-04       4.20497e+02
  7.300      2.57543e+02       1.08520e+01       9.55522e+00       5.61435e-04       4.14985e+02
  7.400      2.56872e+02       1.10346e+01       9.71438e+00       5.55505e-04       4.09531e+02
  7.500      2.56209e+02       1.12214e+01       9.86270e+00       5.49604e-04       4.04135e+02
  7.600      2.55555e+02       1.14049e+01       1.00037e+01       5.43731e-04       3.98796e+02
  7.700      2.54911e+02       1.15794e+01       1.01378e+01       5.37886e-04       3.93515e+02
  7.800      2.54272e+02       1.17419e+01       1.02592e+01       5.32079e-04       3.88290e+02
  7.900      2.53633e+02       1.18900e+01       1.03615e+01       5.26318e-04       3.83122e+02
  8.000      2.52990e+02       1.20213e+01       1.04379e+01       5.20615e-04       3.78010e+02
  8.100      2.52339e+02       1.21334e+01       1.04821e+01       5.14977e-04       3.72953e+02
  8.200      2.51675e+02       1.22281e+01       1.04907e+01       5.09410e-04       3.67951e+02
  8.300      2.50999e+02       1.23124e+01       1.04643e+01       5.03913e-04       3.63003e+02
  8.400      2.50311e+02       1.23937e+01       1.04038e+01       4.98484e-04       3.58107e+02
  8.500      2.49610e+02       1.24793e+01       1.03101e+01       4.93123e-04       3.53264e+02
  8.600      2.48896e+02       1.25765e+01       1.01840e+01       4.87829e-04       3.48472e+02
  8.700      2.48170e+02       1.26908e+01       1.00255e+01       4.82598e-04       3.43730e+02
  8.800      2.47436e+02       1.28243e+01       9.83230e+00       4.77425e-04       3.39039e+02
  8.900      2.46695e+02       1.29792e+01       9.60237e+00       4.72303e-04       3.34397e+02
  9.000      2.45952e+02       1.31575e+01       9.33348e+00       4.67226e-04       3.29806e+02
  9.100      2.45209e+02       1.33610e+01       9.02343e+00       4.62187e-04       3.25265e+02
  9.200      2.44471e+02       1.35937e+01       8.67356e+00       4.57181e-04       3.20773e+02
  9.300      2.43740e+02       1.38681e+01       8.30196e+00       4.52200e-04       3.16330e+02
  9.400      2.43023e+02       1.41993e+01       7.93173e+00       4.47237e-04       3.11937e+02
  9.500      2.42321e+02       1.46024e+01       7.58598e+00       4.42285e-04       3.07592e+02
  9.600      2.41641e+02       1.50926e+01       7.28779e+00       4.37336e-04       3.03297e+02
  9.700      2.40986e+02       1.56848e+01       7.06023e+00       4.32384e-04       2.99050e+02
  9.800      2.40359e+02       1.63852e+01       6.91803e+00       4.27425e-04       2.94851e+02
  9.900      2.39758e+02       1.71813e+01       6.85869e+00       4.22465e-04       2.90701e+02
 10.000      2.39182e+02       1.80580e+01       6.87754e+00       4.17508e-04       2.86599e+02
 10.100      2.38628e+02       1.90006e+01       6.96990e+00       4.12559e-04       2.82546e+02
 10.200      2.38095e+02       1.99941e+01       7.13110e+00       4.07622e-04       2.78541e+02
 10.300      2.37580e+02       2.10237e+01       7.35648e+00       4.02703e-04       2.74585e+02
 10.400      2.37081e+02       2.20721e+01       7.63981e+00       3.97808e-04       2.70678e+02
 10.500      2.36589e+02       2.31159e+01       7.97035e+00       3.92950e-04       2.66817e+02
 10.600      2.36095e+02       2.41304e+01       8.33655e+00       3.88144e-04       2.63004e+02
 10.700      2.35590e+02       2.50907e+01       8.72684e+00       3.83405e-04       2.59236e+02
 10.800      2.35065e+02       2.59722e+01       9.12965e+00       3.78744e-04       2.55514e+02
 10.900      2.34511e+02       2.67502e+01       9.53343e+00       3.74175e-04       2.51837e+02
 11.000      2.33919e+02       2.74007e+01       9.92664e+00       3.69709e-04       2.48203e+02
 11.100      2.33288e+02       2.79192e+01       1.02982e+01       3.65346e-04       2.44612e+02
 11.200      2.32623e+02       2.83206e+01       1.06374e+01       3.61075e-04       2.41064e+02
 11.300      2.31932e+02       2.86207e+01       1.09336e+01       3.56884e-04       2.37558e+02
 11.400      2.31220e+02       2.88354e+01       1.11763e+01       3.52761e-04       2.34092e+02
 11.500      2.30493e+02       2.89805e+01       1.13547e+01       3.48696e-04       2.30668e+02
 11.600      2.29759e+02       2.90717e+01       1.14583e+01       3.44677e-04       2.27283e+02
 11.700      2.29023e+02       2.91250e+01       1.14765e+01       3.40695e-04       2.23937e+02
 11.800      2.28288e+02       2.91513e+01       1.14064e+01       3.36745e-04       2.20631e+02
 11.900      2.27553e+02       2.91542e+01       1.12574e+01       3.32828e-04       2.17362e+02
 12.000      2.26817e+02       2.91367e+01       1.10400e+01       3.28947e-04       2.14132e+02
 12.100      2.26076e+02       2.91017e+01       1.07645e+01       3.25103e-04       2.10940e+02
 12.200      2.25331e+02       2.90522e+01       1.04414e+01       3.21301e-04       2.07785e+02
 12.300      2.24577e+02       2.89910e+01       1.00813e+01       3.17541e-04       2.04667e+02
 12.400      2.23815e+02       2.89212e+01       9.69456e+00       3.13825e-04       2.01585e+02
 12.500      2.23042e+02       2.88454e+01       9.29161e+00       3.10157e-04       1.98541e+02
 12.600      2.22258e+02       2.87649e+01       8.88271e+00       3.06533e-04       1.95532e+02
 12.700      2.21469e+02       2.86786e+01       8.47789e+00       3.02948e-04       1.92558e+02
 12.800      2.20678e+02       2.85855e+01       8.08715e+00       2.99395e-04       1.89620e+02
 12.900      2.19888e+02       2.84848e+01       7.72049e+00       2.95869e-04       1.86716e+02
 13.000      2.19105e+02       2.83752e+01       7.38792e+00       2.92364e-04       1.83847e+02
 13.100      2.18331e+02       2.82560e+01       7.09944e+00       2.88875e-04       1.81012e+02
 13.200      2.17572e+02       2.81260e+01       6.86507e+00       2.85396e-04       1.78210e+02
 13.300      2.16831e+02       2.79843e+01       6.69480e+00       2.81923e-04       1.75442e+02
 13.400      2.16111e+02       2.78298e+01       6.59639e+00       2.78451e-04       1.72706e+02
 13.500      2.15413e+02       2.76610e+01       6.56295e+00       2.74982e-04       1.70004e+02
 13.600      2.14736e+02       2.74761e+01       6.58169e+00       2.71518e-04       1.67335e+02
 13.700      2.14078e+02       2.72735e+01       6.63980e+00       2.68064e-04       1.64699e+02
 13.800      2.13438e+02       2.70513e+01       6.72450e+00       2.64621e-04       1.62098e+02
 13.900      2.12814e+02       2.68079e+01       6.82297e+00       2.61193e-04       1.59531e+02
 14.000      2.12206e+02       2.65416e+01       6.92243e+00       2.57782e-04       1.56998e+02
 14.100      2.11613e+02       2.62506e+01       7.01007e+00       2.54392e-04       1.54500e+02
 14.200      2.11032e+02       2.59332e+01       7.07309e+00       2.51025e-04       1.52036e+02
 14.300      2.10463e+02       2.55877e+01       7.09870e+00       2.47682e-04       1.49607e+02
 14.400      2.09906e+02       2.52134e+01       7.07847e+00       2.44366e-04       1.47213e+02
 14.500      2.09363e+02       2.48125e+01       7.01475e+00       2.41070e-04       1.44853e+02
 14.600      2.08839e+02       2.43873e+01       6.91151e+00       2.37791e-04       1.42525e+02
 14.700      2.08337e+02       2.39403e+01       6.77275e+00       2.34524e-04       1.40228e+02
 14.800      2.07860e+02       2.34739e+01       6.60246e+00       2.31264e-04       1.37963e+02
 14.900      2.07413e+02       2.29907e+01       6.40463e+00       2.28007e-04       1.35727e+02
 15.000      2.06998e+02       2.24931e+01       6.18324e+00       2.24749e-04       1.33520e+02
 15.100      2.06620e+02       2.19835e+01       5.94228e+00       2.21487e-04       1.31341e+02
 15.200      2.06281e+02       2.14644e+01       5.68575e+00       2.18216e-04       1.29190e+02
 15.300      2.05986e+02       2.09383e+01       5.41762e+00       2.14935e-04       1.27065e+02
 15.400      2.05738e+02       2.04076e+01       5.14189e+00       2.11639e-04       1.24966e+02
 15.500      2.05540e+02       1.98743e+01       4.86214e+00       2.08329e-04       1.22893e+02
 15.600      2.05388e+02       1.93391e+01       4.58040e+00       2.05012e-04       1.20847e+02
 15.700      2.05280e+02       1.88020e+01       4.29835e+00       2.01694e-04       1.18829e+02
 15.800      2.05213e+02       1.82632e+01       4.01763e+00       1.98385e-04       1.16841e+02
 15.900      2.05184e+02       1.77230e+01       3.73993e+00       1.95092e-04       1.14885e+02
 16.000      2.05188e+02       1.71814e+01       3.46689e+00       1.91820e-04       1.12961e+02
 16.100      2.05222e+02       1.66387e+01       3.20020e+00       1.88578e-04       1.11070e+02
 16.200      2.05284e+02       1.60949e+01       2.94151e+00       1.85372e-04       1.09215e+02
 16.300      2.05370e+02       1.55504e+01       2.69249e+00       1.82206e-04       1.07394e+02
 16.400      2.05476e+02       1.50052e+01       2.45480e+00       1.79087e-04       1.05610e+02
 16.500      2.05600e+02       1.44595e+01       2.23011e+00       1.76018e-04       1.03863e+02
 16.600      2.05737e+02       1.39135e+01       2.02009e+00       1.73006e-04       1.02154e+02
 16.700      2.05886e+02       1.33673e+01       1.82640e+00       1.70054e-04       1.00483e+02
 16.800      2.06041e+02       1.28212e+01       1.65057e+00       1.67165e-04       9.88512e+01
 16.900      2.06203e+02       1.22754e+01       1.49278e+00       1.64339e-04       9.72565e+01
 17.000      2.06371e+02       1.17304e+01       1.35242e+00       1.61573e-04       9.56977e+01
 17.100      2.06545e+02       1.11866e+01       1.22890e+00       1.58865e-04       9.41728e+01
 17.200      2.06725e+02       1.06444e+01       1.12159e+00       1.56211e-04       9.26803e+01
 17.300      2.06910e+02       1.01042e+01       1.02988e+00       1.53610e-04       9.12186e+01
 17.400      2.07101e+02       9.56640e+00       9.53153e-01       1.51058e-04       8.97860e+01
 17.500      2.07298e+02       9.03145e+00       8.90806e-01       1.48554e-04       8.83812e+01
 17.600      2.07499e+02       8.49974e+00       8.42222e-01       1.46095e-04       8.70028e+01
 17.700      2.07705e+02       7.97170e+00       8.06789e-01       1.43680e-04       8.56495e+01
 17.800      2.07917e+02       7.44774e+00       7.83895e-01       1.41305e-04       8.43200e+01
 17.900      2.08133e+02       6.92825e+00       7.72927e-01       1.38971e-04       8.30130e+01
 18.000      2.08354e+02       6.41366e+00       7.73272e-01       1.36674e-04       8.17274e+01
 18.100      2.08579e+02       5.90439e+00       7.84317e-01       1.34413e-04       8.04622e+01
 18.200      2.08808e+02       5.40083e+00       8.05451e-01       1.32186e-04       7.92162e+01
 18.300      2.09042e+02       4.90342e+00       8.36060e-01       1.29992e-04       7.79886e+01
 18.400      2.09280e+02       4.41254e+00       8.75533e-01       1.27829e-04       7.67783e+01
 18.500      2.09521e+02       3.92863e+00       9.23257e-01       1.25696e-04       7.55844e+01
 18.600      2.09766e+02       3.45208e+00       9.78618e-01       1.23592e-04       7.44061e+01
 18.700      2.10015e+02       2.98332e+00       1.04101e+00       1.21515e-04       7.32426e+01
 18.800      2.10267e+02       2.52277e+00       1.10981e+00       1.19465e-04       7.20931e+01
 18.900      2.10523e+02       2.07082e+00       1.18441e+00       1.17439e-04       7.09569e+01
 19.000      2.10781e+02       1.62789e+00       1.26419e+00       1.15438e-04       6.98332e+01
 19.100      2.11043e+02       1.19435e+00       1.34854e+00       1.13460e-04       6.87217e+01
 19.200      2.11306e+02       7.70438e-01       1.43677e+00       1.11506e-04       6.76228e+01
 19.300      2.11572e+02       3.56392e-01       1.52820e+00       1.09578e-04       6.65370e+01
 19.400      2.11837e+02      -4.75803e-02       1.62215e+00       1.07677e-04       6.54648e+01
 19.500      2.12103e+02      -4.41246e-01       1.71793e+00       1.05803e-04       6.44063e+01
 19.600      2.12368e+02      -8.24382e-01       1.81486e+00       1.03958e-04       6.33621e+01
 19.700      2.12632e+02      -1.19676e+00       1.91226e+00       1.02142e-04       6.23325e+01
 19.800      2.12893e+02      -1.55815e+00       2.00945e+00       1.00356e-04       6.13179e+01
 19.900      2.13152e+02      -1.90835e+00       2.10575e+00       9.86003e-05       6.03183e+01
 20.000      2.13407e+02      -2.24711e+00       2.20046e+00       9.68756e-05       5.93342e+01
 20.100      2.13658e+02      -2.57422e+00       2.29292e+00       9.51825e-05       5.83657e+01
 20.200      2.13903e+02      -2.88944e+00       2.38243e+00       9.35213e-05       5.74130e+01
 20.300      2.14143e+02      -3.19256e+00       2.46831e+00       9.18925e-05       5.64763e+01
