# Data Source: NASA GEOS5 Near-Real-Time
# Model Time = 2010-01-27 18:00:00
# Location = [  39.7393, -104.9900 ]
# Fields = [ Z(km), T(K), U(m/s), V(m/s), R(g/cm3), P(mbar) ]
# Ground Height = 1.589
  0.000      2.86276e+02      -3.11445e+00       5.86745e-01       1.24124e-03       1.01982e+03
  0.100      2.85629e+02      -3.15472e+00       5.35254e-01       1.22924e-03       1.00768e+03
  0.200      2.84982e+02      -3.21335e+00       4.75732e-01       1.21738e-03       9.95689e+02
  0.300      2.84334e+02      -3.26161e+00       4.20747e-01       1.20563e-03       9.83839e+02
  0.400      2.83686e+02      -3.27100e+00       3.82803e-01       1.19398e-03       9.72113e+02
  0.500      2.83034e+02      -3.24427e+00       3.66496e-01       1.18243e-03       9.60499e+02
  0.600      2.82374e+02      -3.24527e+00       3.60940e-01       1.17100e-03       9.48995e+02
  0.700      2.81702e+02      -3.31409e+00       3.52906e-01       1.15970e-03       9.37600e+02
  0.800      2.81020e+02      -3.39579e+00       3.27490e-01       1.14853e-03       9.26316e+02
  0.900      2.80330e+02      -3.42793e+00       2.78610e-01       1.13747e-03       9.15148e+02
  1.000      2.79633e+02      -3.40925e+00       2.52339e-01       1.12652e-03       9.04087e+02
  1.100      2.78930e+02      -3.36091e+00       3.05563e-01       1.11566e-03       8.93121e+02
  1.200      2.78240e+02      -3.31389e+00       3.92666e-01       1.10482e-03       8.82256e+02
  1.300      2.77595e+02      -3.30609e+00       3.96264e-01       1.09389e-03       8.71503e+02
  1.400      2.77002e+02      -3.36877e+00       2.90149e-01       1.08286e-03       8.60866e+02
  1.500      2.76426e+02      -3.52258e+00       1.94570e-01       1.07185e-03       8.50339e+02
  1.600      2.75834e+02      -3.77117e+00       2.07047e-01       1.06098e-03       8.39916e+02
  1.700      2.75227e+02      -4.04752e+00       2.67951e-01       1.05025e-03       8.29593e+02
  1.800      2.74616e+02      -4.26541e+00       2.78344e-01       1.03962e-03       8.19374e+02
  1.900      2.74026e+02      -4.34359e+00       2.12090e-01       1.02900e-03       8.09259e+02
  2.000      2.73496e+02      -4.20515e+00       1.06640e-01       1.01824e-03       7.99252e+02
  2.100      2.73043e+02      -3.80557e+00      -5.28879e-03       1.00730e-03       7.89354e+02
  2.200      2.72616e+02      -3.20336e+00      -1.12961e-01       9.96365e-04       7.79564e+02
  2.300      2.72150e+02      -2.47741e+00      -2.09431e-01       9.85666e-04       7.69876e+02
  2.400      2.71623e+02      -1.70235e+00      -2.75900e-01       9.75282e-04       7.60289e+02
  2.500      2.71048e+02      -9.48979e-01      -2.82614e-01       9.65155e-04       7.50802e+02
  2.600      2.70441e+02      -2.77107e-01      -2.03452e-01       9.55230e-04       7.41416e+02
  2.700      2.69807e+02       3.09307e-01      -3.31778e-02       9.45478e-04       7.32127e+02
  2.800      2.69152e+02       8.24345e-01       2.26660e-01       9.35876e-04       7.22933e+02
  2.900      2.68484e+02       1.28992e+00       5.66375e-01       9.26394e-04       7.13832e+02
  3.000      2.67816e+02       1.74415e+00       9.59374e-01       9.16982e-04       7.04823e+02
  3.100      2.67164e+02       2.22660e+00       1.37701e+00       9.07592e-04       6.95907e+02
  3.200      2.66535e+02       2.75992e+00       1.79188e+00       8.98200e-04       6.87083e+02
  3.300      2.65927e+02       3.34804e+00       2.17798e+00       8.88814e-04       6.78351e+02
  3.400      2.65337e+02       3.99323e+00       2.51020e+00       8.79442e-04       6.69709e+02
  3.500      2.64758e+02       4.68789e+00       2.77482e+00       8.70108e-04       6.61157e+02
  3.600      2.64181e+02       5.41714e+00       2.96661e+00       8.60850e-04       6.52696e+02
  3.700      2.63596e+02       6.16570e+00       3.08249e+00       8.51698e-04       6.44326e+02
  3.800      2.62999e+02       6.91602e+00       3.14073e+00       8.42659e-04       6.36045e+02
  3.900      2.62392e+02       7.64914e+00       3.17296e+00       8.33727e-04       6.27850e+02
  4.000      2.61775e+02       8.34744e+00       3.20953e+00       8.24892e-04       6.19738e+02
  4.100      2.61156e+02       9.01027e+00       3.26256e+00       8.16138e-04       6.11710e+02
  4.200      2.60541e+02       9.64838e+00       3.33186e+00       8.07441e-04       6.03767e+02
  4.300      2.59940e+02       1.02728e+01       3.41681e+00       7.98780e-04       5.95912e+02
  4.400      2.59355e+02       1.08949e+01       3.51212e+00       7.90149e-04       5.88146e+02
  4.500      2.58783e+02       1.15266e+01       3.60820e+00       7.81552e-04       5.80465e+02
  4.600      2.58224e+02       1.21797e+01       3.69524e+00       7.72993e-04       5.72868e+02
  4.700      2.57673e+02       1.28578e+01       3.76483e+00       7.64485e-04       5.65354e+02
  4.800      2.57123e+02       1.35507e+01       3.81095e+00       7.56051e-04       5.57921e+02
  4.900      2.56565e+02       1.42463e+01       3.82783e+00       7.47712e-04       5.50570e+02
  5.000      2.55992e+02       1.49340e+01       3.81028e+00       7.39486e-04       5.43299e+02
  5.100      2.55405e+02       1.56093e+01       3.75608e+00       7.31375e-04       5.36108e+02
  5.200      2.54805e+02       1.62697e+01       3.66393e+00       7.23373e-04       5.28996e+02
  5.300      2.54193e+02       1.69128e+01       3.53280e+00       7.15475e-04       5.21964e+02
  5.400      2.53569e+02       1.75381e+01       3.37025e+00       7.07681e-04       5.15009e+02
  5.500      2.52927e+02       1.81475e+01       3.19408e+00       6.99999e-04       5.08131e+02
  5.600      2.52266e+02       1.87428e+01       3.02266e+00       6.92438e-04       5.01327e+02
  5.700      2.51581e+02       1.93251e+01       2.87175e+00       6.85001e-04       4.94597e+02
  5.800      2.50874e+02       1.98874e+01       2.73792e+00       6.77682e-04       4.87938e+02
  5.900      2.50150e+02       2.04195e+01       2.60921e+00       6.70468e-04       4.81350e+02
  6.000      2.49412e+02       2.09112e+01       2.47363e+00       6.63346e-04       4.74831e+02
  6.100      2.48663e+02       2.13550e+01       2.32360e+00       6.56305e-04       4.68380e+02
  6.200      2.47904e+02       2.17539e+01       2.16781e+00       6.49343e-04       4.61997e+02
  6.300      2.47137e+02       2.21134e+01       2.01872e+00       6.42456e-04       4.55682e+02
  6.400      2.46361e+02       2.24390e+01       1.88880e+00       6.35642e-04       4.49435e+02
  6.500      2.45577e+02       2.27370e+01       1.78837e+00       6.28902e-04       4.43254e+02
  6.600      2.44783e+02       2.30158e+01       1.72131e+00       6.22239e-04       4.37139e+02
  6.700      2.43976e+02       2.32842e+01       1.69024e+00       6.15656e-04       4.31089e+02
  6.800      2.43154e+02       2.35511e+01       1.69780e+00       6.09158e-04       4.25102e+02
  6.900      2.42316e+02       2.38239e+01       1.74516e+00       6.02746e-04       4.19177e+02
  7.000      2.41462e+02       2.41041e+01       1.82737e+00       5.96418e-04       4.13315e+02
  7.100      2.40595e+02       2.43917e+01       1.93786e+00       5.90165e-04       4.07514e+02
  7.200      2.39717e+02       2.46865e+01       2.07006e+00       5.83984e-04       4.01774e+02
  7.300      2.38831e+02       2.49887e+01       2.21765e+00       5.77867e-04       3.96095e+02
  7.400      2.37937e+02       2.53002e+01       2.37708e+00       5.71809e-04       3.90477e+02
  7.500      2.37040e+02       2.56239e+01       2.54648e+00       5.65801e-04       3.84918e+02
  7.600      2.36142e+02       2.59629e+01       2.72399e+00       5.59837e-04       3.79417e+02
  7.700      2.35245e+02       2.63203e+01       2.90776e+00       5.53909e-04       3.73973e+02
  7.800      2.34352e+02       2.66932e+01       3.09373e+00       5.48012e-04       3.68587e+02
  7.900      2.33462e+02       2.70657e+01       3.27281e+00       5.42146e-04       3.63258e+02
  8.000      2.32578e+02       2.74201e+01       3.43520e+00       5.36310e-04       3.57986e+02
  8.100      2.31699e+02       2.77387e+01       3.57110e+00       5.30502e-04       3.52771e+02
  8.200      2.30825e+02       2.80041e+01       3.67125e+00       5.24724e-04       3.47613e+02
  8.300      2.29958e+02       2.82126e+01       3.74096e+00       5.18975e-04       3.42513e+02
  8.400      2.29097e+02       2.83749e+01       3.80157e+00       5.13255e-04       3.37469e+02
  8.500      2.28241e+02       2.85027e+01       3.87526e+00       5.07565e-04       3.32481e+02
  8.600      2.27391e+02       2.86077e+01       3.98419e+00       5.01905e-04       3.27549e+02
  8.700      2.26546e+02       2.87009e+01       4.14983e+00       4.96276e-04       3.22672e+02
  8.800      2.25707e+02       2.87834e+01       4.37638e+00       4.90677e-04       3.17850e+02
  8.900      2.24874e+02       2.88451e+01       4.64973e+00       4.85108e-04       3.13083e+02
  9.000      2.24046e+02       2.88754e+01       4.95493e+00       4.79570e-04       3.08370e+02
  9.100      2.23225e+02       2.88639e+01       5.27698e+00       4.74062e-04       3.03711e+02
  9.200      2.22411e+02       2.87999e+01       5.60094e+00       4.68583e-04       2.99106e+02
  9.300      2.21604e+02       2.86800e+01       5.91830e+00       4.63135e-04       2.94556e+02
  9.400      2.20800e+02       2.85165e+01       6.23512e+00       4.57724e-04       2.90058e+02
  9.500      2.19997e+02       2.83239e+01       6.55945e+00       4.52355e-04       2.85613e+02
  9.600      2.19192e+02       2.81167e+01       6.89936e+00       4.47033e-04       2.81220e+02
  9.700      2.18382e+02       2.79094e+01       7.26290e+00       4.41764e-04       2.76878e+02
  9.800      2.17564e+02       2.77160e+01       7.65706e+00       4.36552e-04       2.72587e+02
  9.900      2.16746e+02       2.75431e+01       8.07046e+00       4.31382e-04       2.68346e+02
 10.000      2.15942e+02       2.73907e+01       8.47613e+00       4.26227e-04       2.64156e+02
 10.100      2.15167e+02       2.72587e+01       8.84664e+00       4.21060e-04       2.60016e+02
 10.200      2.14435e+02       2.71469e+01       9.15453e+00       4.15853e-04       2.55927e+02
 10.300      2.13761e+02       2.70552e+01       9.37235e+00       4.10581e-04       2.51888e+02
 10.400      2.13160e+02       2.69834e+01       9.47403e+00       4.05220e-04       2.47901e+02
 10.500      2.12646e+02       2.69295e+01       9.46125e+00       3.99750e-04       2.43965e+02
 10.600      2.12232e+02       2.68901e+01       9.36148e+00       3.94157e-04       2.40083e+02
 10.700      2.11932e+02       2.68614e+01       9.20321e+00       3.88427e-04       2.36259e+02
 10.800      2.11759e+02       2.68400e+01       9.01488e+00       3.82549e-04       2.32494e+02
 10.900      2.11726e+02       2.68221e+01       8.82495e+00       3.76513e-04       2.28790e+02
 11.000      2.11847e+02       2.68043e+01       8.66190e+00       3.70310e-04       2.25149e+02
 11.100      2.12128e+02       2.67833e+01       8.54842e+00       3.63946e-04       2.21573e+02
 11.200      2.12541e+02       2.67585e+01       8.48107e+00       3.57480e-04       2.18061e+02
 11.300      2.13051e+02       2.67295e+01       8.44906e+00       3.50982e-04       2.14610e+02
 11.400      2.13621e+02       2.66962e+01       8.44155e+00       3.44517e-04       2.11221e+02
 11.500      2.14215e+02       2.66584e+01       8.44774e+00       3.38146e-04       2.07891e+02
 11.600      2.14796e+02       2.66158e+01       8.45681e+00       3.31924e-04       2.04619e+02
 11.700      2.15328e+02       2.65684e+01       8.45794e+00       3.25902e-04       2.01405e+02
 11.800      2.15777e+02       2.65159e+01       8.44061e+00       3.20125e-04       1.98247e+02
 11.900      2.16135e+02       2.64587e+01       8.39942e+00       3.14590e-04       1.95143e+02
 12.000      2.16421e+02       2.63976e+01       8.33345e+00       3.09263e-04       1.92092e+02
 12.100      2.16653e+02       2.63332e+01       8.24188e+00       3.04110e-04       1.89094e+02
 12.200      2.16850e+02       2.62665e+01       8.12391e+00       2.99099e-04       1.86147e+02
 12.300      2.17030e+02       2.61981e+01       7.97873e+00       2.94200e-04       1.83250e+02
 12.400      2.17211e+02       2.61290e+01       7.80555e+00       2.89385e-04       1.80401e+02
 12.500      2.17412e+02       2.60598e+01       7.60356e+00       2.84629e-04       1.77600e+02
 12.600      2.17651e+02       2.59914e+01       7.37195e+00       2.79906e-04       1.74846e+02
 12.700      2.17942e+02       2.59218e+01       7.11059e+00       2.75203e-04       1.72137e+02
 12.800      2.18274e+02       2.58403e+01       6.82160e+00       2.70532e-04       1.69474e+02
 12.900      2.18637e+02       2.57340e+01       6.50758e+00       2.65910e-04       1.66855e+02
 13.000      2.19016e+02       2.55903e+01       6.17113e+00       2.61353e-04       1.64280e+02
 13.100      2.19400e+02       2.53965e+01       5.81483e+00       2.56877e-04       1.61749e+02
 13.200      2.19774e+02       2.51397e+01       5.44130e+00       2.52494e-04       1.59261e+02
 13.300      2.20128e+02       2.48072e+01       5.05312e+00       2.48218e-04       1.56816e+02
 13.400      2.20447e+02       2.43864e+01       4.65290e+00       2.44059e-04       1.54412e+02
 13.500      2.20719e+02       2.38643e+01       4.24323e+00       2.40029e-04       1.52050e+02
 13.600      2.20932e+02       2.32285e+01       3.82670e+00       2.36138e-04       1.49729e+02
 13.700      2.21077e+02       2.24737e+01       3.40595e+00       2.32388e-04       1.47448e+02
 13.800      2.21157e+02       2.16168e+01       2.98368e+00       2.28771e-04       1.45205e+02
 13.900      2.21178e+02       2.06783e+01       2.56260e+00       2.25272e-04       1.42999e+02
 14.000      2.21147e+02       1.96788e+01       2.14542e+00       2.21881e-04       1.40826e+02
 14.100      2.21070e+02       1.86389e+01       1.73487e+00       2.18587e-04       1.38687e+02
 14.200      2.20951e+02       1.75790e+01       1.33367e+00       2.15379e-04       1.36578e+02
 14.300      2.20798e+02       1.65199e+01       9.44523e-01       2.12247e-04       1.34499e+02
 14.400      2.20616e+02       1.54820e+01       5.70154e-01       2.09182e-04       1.32447e+02
 14.500      2.20410e+02       1.44860e+01       2.13273e-01       2.06175e-04       1.30421e+02
 14.600      2.20187e+02       1.35523e+01      -1.23398e-01       2.03218e-04       1.28421e+02
 14.700      2.19953e+02       1.27016e+01      -4.37142e-01       2.00302e-04       1.26443e+02
 14.800      2.19713e+02       1.19542e+01      -7.25260e-01       1.97420e-04       1.24489e+02
 14.900      2.19472e+02       1.13208e+01      -9.86490e-01       1.94568e-04       1.22556e+02
 15.000      2.19232e+02       1.07927e+01      -1.22229e+00       1.91746e-04       1.20645e+02
 15.100      2.18993e+02       1.03596e+01      -1.43442e+00       1.88954e-04       1.18760e+02
 15.200      2.18756e+02       1.00109e+01      -1.62462e+00       1.86195e-04       1.16899e+02
 15.300      2.18524e+02       9.73615e+00      -1.79466e+00       1.83468e-04       1.15064e+02
 15.400      2.18297e+02       9.52484e+00      -1.94629e+00       1.80774e-04       1.13257e+02
 15.500      2.18076e+02       9.36648e+00      -2.08126e+00       1.78115e-04       1.11478e+02
 15.600      2.17862e+02       9.25058e+00      -2.20132e+00       1.75490e-04       1.09727e+02
 15.700      2.17657e+02       9.16664e+00      -2.30823e+00       1.72900e-04       1.08007e+02
 15.800      2.17462e+02       9.10416e+00      -2.40375e+00       1.70346e-04       1.06316e+02
 15.900      2.17278e+02       9.05266e+00      -2.48962e+00       1.67829e-04       1.04656e+02
 16.000      2.17106e+02       9.00163e+00      -2.56761e+00       1.65348e-04       1.03027e+02
 16.100      2.16947e+02       8.94058e+00      -2.63946e+00       1.62904e-04       1.01430e+02
 16.200      2.16803e+02       8.85902e+00      -2.70694e+00       1.60497e-04       9.98654e+01
 16.300      2.16675e+02       8.74899e+00      -2.77144e+00       1.58128e-04       9.83327e+01
 16.400      2.16561e+02       8.61032e+00      -2.83334e+00       1.55794e-04       9.68309e+01
 16.500      2.16463e+02       8.44436e+00      -2.89276e+00       1.53495e-04       9.53585e+01
 16.600      2.16379e+02       8.25245e+00      -2.94986e+00       1.51229e-04       9.39143e+01
 16.700      2.16310e+02       8.03593e+00      -3.00480e+00       1.48994e-04       9.24969e+01
 16.800      2.16254e+02       7.79616e+00      -3.05771e+00       1.46790e-04       9.11051e+01
 16.900      2.16212e+02       7.53447e+00      -3.10875e+00       1.44615e-04       8.97377e+01
 17.000      2.16184e+02       7.25220e+00      -3.15806e+00       1.42467e-04       8.83935e+01
 17.100      2.16168e+02       6.95071e+00      -3.20580e+00       1.40347e-04       8.70716e+01
 17.200      2.16165e+02       6.63133e+00      -3.25211e+00       1.38252e-04       8.57708e+01
 17.300      2.16174e+02       6.29541e+00      -3.29714e+00       1.36182e-04       8.44902e+01
 17.400      2.16195e+02       5.94430e+00      -3.34104e+00       1.34136e-04       8.32287e+01
 17.500      2.16227e+02       5.57932e+00      -3.38395e+00       1.32113e-04       8.19856e+01
 17.600      2.16271e+02       5.20184e+00      -3.42603e+00       1.30111e-04       8.07599e+01
 17.700      2.16326e+02       4.81319e+00      -3.46743e+00       1.28131e-04       7.95509e+01
 17.800      2.16392e+02       4.41472e+00      -3.50828e+00       1.26171e-04       7.83578e+01
 17.900      2.16467e+02       4.00777e+00      -3.54875e+00       1.24231e-04       7.71797e+01
 18.000      2.16553e+02       3.59369e+00      -3.58898e+00       1.22309e-04       7.60160e+01
 18.100      2.16648e+02       3.17381e+00      -3.62911e+00       1.20406e-04       7.48660e+01
 18.200      2.16752e+02       2.74948e+00      -3.66930e+00       1.18520e-04       7.37290e+01
 18.300      2.16866e+02       2.32206e+00      -3.70970e+00       1.16652e-04       7.26046e+01
 18.400      2.16987e+02       1.89287e+00      -3.75045e+00       1.14800e-04       7.14920e+01
 18.500      2.17118e+02       1.46326e+00      -3.79170e+00       1.12964e-04       7.03908e+01
 18.600      2.17256e+02       1.03454e+00      -3.83359e+00       1.11143e-04       6.93004e+01
 18.700      2.17401e+02       6.07430e-01      -3.87614e+00       1.09339e-04       6.82210e+01
 18.800      2.17552e+02       1.82286e-01      -3.91928e+00       1.07553e-04       6.71533e+01
 18.900      2.17708e+02      -2.40574e-01      -3.96294e+00       1.05786e-04       6.60975e+01
 19.000      2.17868e+02      -6.60808e-01      -4.00706e+00       1.04040e-04       6.50544e+01
 19.100      2.18030e+02      -1.07808e+00      -4.05157e+00       1.02316e-04       6.40242e+01
 19.200      2.18195e+02      -1.49206e+00      -4.09639e+00       1.00616e-04       6.30074e+01
 19.300      2.18360e+02      -1.90240e+00      -4.14147e+00       9.89392e-05       6.20044e+01
 19.400      2.18524e+02      -2.30878e+00      -4.18672e+00       9.72880e-05       6.10155e+01
 19.500      2.18687e+02      -2.71086e+00      -4.23210e+00       9.56629e-05       6.00411e+01
 19.600      2.18847e+02      -3.10831e+00      -4.27751e+00       9.40648e-05       5.90814e+01
 19.700      2.19004e+02      -3.50079e+00      -4.32291e+00       9.24945e-05       5.81367e+01
 19.800      2.19156e+02      -3.88796e+00      -4.36822e+00       9.09526e-05       5.72071e+01
 19.900      2.19302e+02      -4.26949e+00      -4.41337e+00       8.94396e-05       5.62930e+01
 20.000      2.19441e+02      -4.64506e+00      -4.45829e+00       8.79562e-05       5.53945e+01
 20.100      2.19572e+02      -5.01432e+00      -4.50292e+00       8.65029e-05       5.45117e+01
 20.200      2.19694e+02      -5.37693e+00      -4.54719e+00       8.50800e-05       5.36448e+01
 20.300      2.19806e+02      -5.73257e+00      -4.59103e+00       8.36879e-05       5.27939e+01
