# Data Source: NASA GEOS5 Near-Real-Time
# Model Time = 2010-04-12 18:00:00
# Location = [  39.7393, -104.9900 ]
# Fields = [ Z(km), T(K), U(m/s), V(m/s), R(g/cm3), P(mbar) ]
# Ground Height = 1.589
  0.000      3.02506e+02       6.96361e-01       5.39980e+00       1.16174e-03       1.00861e+03
  0.100      3.01860e+02       6.99062e-01       5.37475e+00       1.15062e-03       9.96823e+02
  0.200      3.01213e+02       7.00377e-01       5.35544e+00       1.13961e-03       9.85174e+02
  0.300      3.00562e+02       6.95195e-01       5.36307e+00       1.12873e-03       9.73660e+02
  0.400      2.99907e+02       6.81555e-01       5.40357e+00       1.11798e-03       9.62278e+02
  0.500      2.99256e+02       6.66417e-01       5.43967e+00       1.10731e-03       9.51027e+02
  0.600      2.98617e+02       6.56360e-01       5.43819e+00       1.09670e-03       9.39907e+02
  0.700      2.97977e+02       6.47707e-01       5.42721e+00       1.08621e-03       9.28918e+02
  0.800      2.97317e+02       6.33824e-01       5.45162e+00       1.07589e-03       9.18061e+02
  0.900      2.96650e+02       6.13401e-01       5.51338e+00       1.06571e-03       9.07331e+02
  1.000      2.96003e+02       5.88765e-01       5.58473e+00       1.05555e-03       8.96722e+02
  1.100      2.95395e+02       5.59115e-01       5.63897e+00       1.04535e-03       8.86234e+02
  1.200      2.94817e+02       5.18370e-01       5.65203e+00       1.03516e-03       8.75873e+02
  1.300      2.94259e+02       4.64313e-01       5.61200e+00       1.02501e-03       8.65644e+02
  1.400      2.93689e+02       4.17231e-01       5.56817e+00       1.01501e-03       8.55543e+02
  1.500      2.93074e+02       4.04313e-01       5.58828e+00       1.00528e-03       8.45560e+02
  1.600      2.92386e+02       4.42478e-01       5.70010e+00       9.95877e-04       8.35688e+02
  1.700      2.91611e+02       5.36818e-01       5.88543e+00       9.86856e-04       8.25922e+02
  1.800      2.90740e+02       6.87172e-01       6.12220e+00       9.78228e-04       8.16256e+02
  1.900      2.89807e+02       8.68874e-01       6.38130e+00       9.69872e-04       8.06686e+02
  2.000      2.88857e+02       1.04942e+00       6.63141e+00       9.61630e-04       7.97209e+02
  2.100      2.87919e+02       1.21929e+00       6.85504e+00       9.53401e-04       7.87821e+02
  2.200      2.86990e+02       1.40842e+00       7.05836e+00       9.45191e-04       7.78518e+02
  2.300      2.86067e+02       1.64823e+00       7.24954e+00       9.37012e-04       7.69298e+02
  2.400      2.85153e+02       1.93690e+00       7.43178e+00       9.28851e-04       7.60161e+02
  2.500      2.84258e+02       2.24827e+00       7.60469e+00       9.20679e-04       7.51108e+02
  2.600      2.83389e+02       2.55858e+00       7.77008e+00       9.12474e-04       7.42140e+02
  2.700      2.82542e+02       2.86121e+00       7.94301e+00       9.04253e-04       7.33255e+02
  2.800      2.81707e+02       3.15569e+00       8.14332e+00       8.96049e-04       7.24454e+02
  2.900      2.80873e+02       3.44078e+00       8.38980e+00       8.87890e-04       7.15734e+02
  3.000      2.80039e+02       3.71262e+00       8.69771e+00       8.79786e-04       7.07095e+02
  3.100      2.79201e+02       3.96680e+00       9.08153e+00       8.71746e-04       6.98536e+02
  3.200      2.78356e+02       4.20139e+00       9.53651e+00       8.63778e-04       6.90057e+02
  3.300      2.77502e+02       4.42037e+00       1.00115e+01       8.55889e-04       6.81656e+02
  3.400      2.76634e+02       4.62864e+00       1.04485e+01       8.48086e-04       6.73330e+02
  3.500      2.75755e+02       4.83151e+00       1.08171e+01       8.40361e-04       6.65077e+02
  3.600      2.74879e+02       5.03532e+00       1.11477e+01       8.32674e-04       6.56899e+02
  3.700      2.74020e+02       5.24652e+00       1.14787e+01       8.24980e-04       6.48795e+02
  3.800      2.73188e+02       5.47038e+00       1.18387e+01       8.17255e-04       6.40768e+02
  3.900      2.72377e+02       5.70909e+00       1.22309e+01       8.09514e-04       6.32816e+02
  4.000      2.71581e+02       5.96436e+00       1.26542e+01       8.01780e-04       6.24938e+02
  4.100      2.70795e+02       6.23400e+00       1.31068e+01       7.94068e-04       6.17134e+02
  4.200      2.70021e+02       6.50053e+00       1.35840e+01       7.86368e-04       6.09405e+02
  4.300      2.69268e+02       6.74279e+00       1.40804e+01       7.78664e-04       6.01752e+02
  4.400      2.68540e+02       6.94039e+00       1.45888e+01       7.70944e-04       5.94174e+02
  4.500      2.67834e+02       7.07963e+00       1.50870e+01       7.63220e-04       5.86674e+02
  4.600      2.67140e+02       7.15004e+00       1.55459e+01       7.55516e-04       5.79248e+02
  4.700      2.66452e+02       7.14149e+00       1.59362e+01       7.47857e-04       5.71898e+02
  4.800      2.65762e+02       7.05432e+00       1.62359e+01       7.40258e-04       5.64622e+02
  4.900      2.65068e+02       6.90165e+00       1.64319e+01       7.32727e-04       5.57419e+02
  5.000      2.64368e+02       6.69739e+00       1.65112e+01       7.25271e-04       5.50290e+02
  5.100      2.63659e+02       6.45416e+00       1.64680e+01       7.17896e-04       5.43234e+02
  5.200      2.62942e+02       6.17881e+00       1.63260e+01       7.10599e-04       5.36249e+02
  5.300      2.62217e+02       5.87657e+00       1.61178e+01       7.03376e-04       5.29336e+02
  5.400      2.61486e+02       5.55282e+00       1.58756e+01       6.96224e-04       5.22492e+02
  5.500      2.60751e+02       5.21951e+00       1.56260e+01       6.89136e-04       5.15718e+02
  5.600      2.60012e+02       4.89797e+00       1.53871e+01       6.82108e-04       5.09013e+02
  5.700      2.59273e+02       4.61022e+00       1.51769e+01       6.75134e-04       5.02376e+02
  5.800      2.58534e+02       4.37678e+00       1.50112e+01       6.68210e-04       4.95807e+02
  5.900      2.57792e+02       4.19903e+00       1.48852e+01       6.61346e-04       4.89305e+02
  6.000      2.57038e+02       4.06505e+00       1.47798e+01       6.54562e-04       4.82870e+02
  6.100      2.56264e+02       3.96262e+00       1.46752e+01       6.47877e-04       4.76500e+02
  6.200      2.55464e+02       3.88078e+00       1.45535e+01       6.41307e-04       4.70194e+02
  6.300      2.54640e+02       3.81855e+00       1.44102e+01       6.34841e-04       4.63952e+02
  6.400      2.53802e+02       3.77999e+00       1.42478e+01       6.28455e-04       4.57773e+02
  6.500      2.52959e+02       3.76915e+00       1.40686e+01       6.22125e-04       4.51657e+02
  6.600      2.52119e+02       3.79064e+00       1.38766e+01       6.15830e-04       4.45604e+02
  6.700      2.51288e+02       3.85411e+00       1.36920e+01       6.09560e-04       4.39612e+02
  6.800      2.50466e+02       3.97193e+00       1.35439e+01       6.03310e-04       4.33682e+02
  6.900      2.49656e+02       4.15653e+00       1.34615e+01       5.97077e-04       4.27814e+02
  7.000      2.48861e+02       4.42000e+00       1.34723e+01       5.90857e-04       4.22008e+02
  7.100      2.48078e+02       4.76728e+00       1.35740e+01       5.84652e-04       4.16263e+02
  7.200      2.47307e+02       5.19646e+00       1.37353e+01       5.78466e-04       4.10578e+02
  7.300      2.46544e+02       5.70538e+00       1.39236e+01       5.72306e-04       4.04954e+02
  7.400      2.45788e+02       6.29185e+00       1.41066e+01       5.66178e-04       3.99388e+02
  7.500      2.45036e+02       6.95201e+00       1.42623e+01       5.60084e-04       3.93881e+02
  7.600      2.44289e+02       7.67710e+00       1.43990e+01       5.54026e-04       3.88433e+02
  7.700      2.43548e+02       8.45751e+00       1.45306e+01       5.48004e-04       3.83045e+02
  7.800      2.42813e+02       9.28362e+00       1.46709e+01       5.42016e-04       3.77716e+02
  7.900      2.42085e+02       1.01456e+01       1.48329e+01       5.36063e-04       3.72448e+02
  8.000      2.41362e+02       1.10300e+01       1.50141e+01       5.30149e-04       3.67239e+02
  8.100      2.40641e+02       1.19193e+01       1.51956e+01       5.24280e-04       3.62088e+02
  8.200      2.39917e+02       1.27958e+01       1.53577e+01       5.18466e-04       3.56995e+02
  8.300      2.39185e+02       1.36420e+01       1.54807e+01       5.12712e-04       3.51957e+02
  8.400      2.38443e+02       1.44402e+01       1.55464e+01       5.07026e-04       3.46974e+02
  8.500      2.37687e+02       1.51743e+01       1.55569e+01       5.01412e-04       3.42044e+02
  8.600      2.36919e+02       1.58294e+01       1.55301e+01       4.95867e-04       3.37169e+02
  8.700      2.36138e+02       1.63903e+01       1.54839e+01       4.90393e-04       3.32348e+02
  8.800      2.35344e+02       1.68421e+01       1.54365e+01       4.84989e-04       3.27580e+02
  8.900      2.34538e+02       1.71702e+01       1.54057e+01       4.79654e-04       3.22866e+02
  9.000      2.33721e+02       1.73775e+01       1.54056e+01       4.74382e-04       3.18205e+02
  9.100      2.32900e+02       1.74860e+01       1.54458e+01       4.69160e-04       3.13597e+02
  9.200      2.32080e+02       1.75187e+01       1.55357e+01       4.63977e-04       3.09040e+02
  9.300      2.31266e+02       1.74987e+01       1.56846e+01       4.58820e-04       3.04534e+02
  9.400      2.30465e+02       1.74491e+01       1.59019e+01       4.53678e-04       3.00078e+02
  9.500      2.29680e+02       1.73884e+01       1.61914e+01       4.48542e-04       2.95671e+02
  9.600      2.28910e+02       1.73159e+01       1.65333e+01       4.43419e-04       2.91313e+02
  9.700      2.28150e+02       1.72259e+01       1.69017e+01       4.38317e-04       2.87005e+02
  9.800      2.27397e+02       1.71126e+01       1.72707e+01       4.33243e-04       2.82747e+02
  9.900      2.26647e+02       1.69704e+01       1.76143e+01       4.28207e-04       2.78539e+02
 10.000      2.25897e+02       1.67934e+01       1.79067e+01       4.23215e-04       2.74380e+02
 10.100      2.25142e+02       1.65799e+01       1.81309e+01       4.18274e-04       2.70271e+02
 10.200      2.24381e+02       1.63386e+01       1.82937e+01       4.13387e-04       2.66211e+02
 10.300      2.23612e+02       1.60796e+01       1.84051e+01       4.08558e-04       2.62198e+02
 10.400      2.22831e+02       1.58132e+01       1.84756e+01       4.03788e-04       2.58233e+02
 10.500      2.22038e+02       1.55495e+01       1.85153e+01       3.99080e-04       2.54313e+02
 10.600      2.21229e+02       1.52989e+01       1.85346e+01       3.94436e-04       2.50438e+02
 10.700      2.20403e+02       1.50709e+01       1.85419e+01       3.89858e-04       2.46607e+02
 10.800      2.19564e+02       1.48719e+01       1.85354e+01       3.85339e-04       2.42821e+02
 10.900      2.18716e+02       1.47071e+01       1.85099e+01       3.80869e-04       2.39078e+02
 11.000      2.17865e+02       1.45819e+01       1.84601e+01       3.76441e-04       2.35379e+02
 11.100      2.17016e+02       1.45013e+01       1.83807e+01       3.72046e-04       2.31723e+02
 11.200      2.16173e+02       1.44707e+01       1.82663e+01       3.67675e-04       2.28111e+02
 11.300      2.15342e+02       1.44953e+01       1.81117e+01       3.63320e-04       2.24543e+02
 11.400      2.14524e+02       1.45772e+01       1.79155e+01       3.58979e-04       2.21018e+02
 11.500      2.13716e+02       1.47100e+01       1.76874e+01       3.54658e-04       2.17535e+02
 11.600      2.12912e+02       1.48860e+01       1.74386e+01       3.50367e-04       2.14094e+02
 11.700      2.12105e+02       1.50974e+01       1.71807e+01       3.46115e-04       2.10695e+02
 11.800      2.11291e+02       1.53364e+01       1.69249e+01       3.41911e-04       2.07336e+02
 11.900      2.10462e+02       1.55952e+01       1.66828e+01       3.37763e-04       2.04018e+02
 12.000      2.09614e+02       1.58661e+01       1.64657e+01       3.33680e-04       2.00739e+02
 12.100      2.08742e+02       1.61421e+01       1.62837e+01       3.29666e-04       1.97499e+02
 12.200      2.07856e+02       1.64219e+01       1.61375e+01       3.25705e-04       1.94298e+02
 12.300      2.06973e+02       1.67075e+01       1.60228e+01       3.21771e-04       1.91136e+02
 12.400      2.06110e+02       1.70007e+01       1.59355e+01       3.17839e-04       1.88013e+02
 12.500      2.05285e+02       1.73033e+01       1.58714e+01       3.13884e-04       1.84930e+02
 12.600      2.04513e+02       1.76170e+01       1.58264e+01       3.09882e-04       1.81886e+02
 12.700      2.03813e+02       1.79438e+01       1.57962e+01       3.05811e-04       1.78882e+02
 12.800      2.03200e+02       1.82855e+01       1.57767e+01       3.01649e-04       1.75917e+02
 12.900      2.02691e+02       1.86430e+01       1.57629e+01       2.97378e-04       1.72992e+02
 13.000      2.02291e+02       1.90084e+01       1.57418e+01       2.92998e-04       1.70107e+02
 13.100      2.01995e+02       1.93681e+01       1.56955e+01       2.88525e-04       1.67265e+02
 13.200      2.01802e+02       1.97087e+01       1.56060e+01       2.83969e-04       1.64467e+02
 13.300      2.01709e+02       2.00165e+01       1.54552e+01       2.79346e-04       1.61714e+02
 13.400      2.01712e+02       2.02780e+01       1.52253e+01       2.74667e-04       1.59008e+02
 13.500      2.01809e+02       2.04797e+01       1.48981e+01       2.69946e-04       1.56350e+02
 13.600      2.01996e+02       2.06080e+01       1.44556e+01       2.65194e-04       1.53741e+02
 13.700      2.02272e+02       2.06493e+01       1.38800e+01       2.60423e-04       1.51181e+02
 13.800      2.02632e+02       2.05908e+01       1.31543e+01       2.55646e-04       1.48672e+02
 13.900      2.03070e+02       2.04322e+01       1.22869e+01       2.50876e-04       1.46213e+02
 14.000      2.03572e+02       2.01848e+01       1.13090e+01       2.46129e-04       1.43801e+02
 14.100      2.04126e+02       1.98606e+01       1.02528e+01       2.41423e-04       1.41436e+02
 14.200      2.04720e+02       1.94713e+01       9.15047e+00       2.36772e-04       1.39114e+02
 14.300      2.05342e+02       1.90287e+01       8.03406e+00       2.32187e-04       1.36835e+02
 14.400      2.05978e+02       1.85448e+01       6.93575e+00       2.27683e-04       1.34597e+02
 14.500      2.06617e+02       1.80314e+01       5.88766e+00       2.23269e-04       1.32397e+02
 14.600      2.07247e+02       1.75002e+01       4.92193e+00       2.18956e-04       1.30234e+02
 14.700      2.07853e+02       1.69631e+01       4.07071e+00       2.14752e-04       1.28108e+02
 14.800      2.08426e+02       1.64320e+01       3.36612e+00       2.10665e-04       1.26016e+02
 14.900      2.08951e+02       1.59183e+01       2.83918e+00       2.06702e-04       1.23957e+02
 15.000      2.09426e+02       1.54275e+01       2.49604e+00       2.02862e-04       1.21930e+02
 15.100      2.09853e+02       1.49586e+01       2.31855e+00       1.99139e-04       1.19937e+02
 15.200      2.10239e+02       1.45105e+01       2.28757e+00       1.95527e-04       1.17978e+02
 15.300      2.10586e+02       1.40822e+01       2.38392e+00       1.92019e-04       1.16053e+02
 15.400      2.10899e+02       1.36725e+01       2.58846e+00       1.88610e-04       1.14162e+02
 15.500      2.11182e+02       1.32804e+01       2.88202e+00       1.85295e-04       1.12306e+02
 15.600      2.11440e+02       1.29048e+01       3.24544e+00       1.82068e-04       1.10484e+02
 15.700      2.11676e+02       1.25445e+01       3.65957e+00       1.78924e-04       1.08698e+02
 15.800      2.11896e+02       1.21985e+01       4.10525e+00       1.75860e-04       1.06948e+02
 15.900      2.12103e+02       1.18657e+01       4.56332e+00       1.72870e-04       1.05232e+02
 16.000      2.12301e+02       1.15450e+01       5.01462e+00       1.69952e-04       1.03552e+02
 16.100      2.12496e+02       1.12353e+01       5.43999e+00       1.67100e-04       1.01908e+02
 16.200      2.12691e+02       1.09355e+01       5.82028e+00       1.64311e-04       1.00299e+02
 16.300      2.12889e+02       1.06445e+01       6.13836e+00       1.61583e-04       9.87260e+01
 16.400      2.13092e+02       1.03621e+01       6.39160e+00       1.58912e-04       9.71869e+01
 16.500      2.13299e+02       1.00881e+01       6.58366e+00       1.56297e-04       9.56802e+01
 16.600      2.13509e+02       9.82228e+00       6.71824e+00       1.53735e-04       9.42046e+01
 16.700      2.13721e+02       9.56464e+00       6.79901e+00       1.51225e-04       9.27586e+01
 16.800      2.13935e+02       9.31502e+00       6.82967e+00       1.48765e-04       9.13407e+01
 16.900      2.14149e+02       9.07330e+00       6.81390e+00       1.46353e-04       8.99496e+01
 17.000      2.14363e+02       8.83936e+00       6.75539e+00       1.43988e-04       8.85841e+01
 17.100      2.14575e+02       8.61309e+00       6.65783e+00       1.41667e-04       8.72428e+01
 17.200      2.14786e+02       8.39436e+00       6.52490e+00       1.39389e-04       8.59247e+01
 17.300      2.14995e+02       8.18306e+00       6.36030e+00       1.37154e-04       8.46286e+01
 17.400      2.15200e+02       7.97905e+00       6.16771e+00       1.34958e-04       8.33535e+01
 17.500      2.15401e+02       7.78224e+00       5.95081e+00       1.32802e-04       8.20982e+01
 17.600      2.15596e+02       7.59248e+00       5.71330e+00       1.30683e-04       8.08619e+01
 17.700      2.15786e+02       7.40967e+00       5.45886e+00       1.28601e-04       7.96436e+01
 17.800      2.15970e+02       7.23369e+00       5.19119e+00       1.26554e-04       7.84424e+01
 17.900      2.16146e+02       7.06441e+00       4.91396e+00       1.24541e-04       7.72575e+01
 18.000      2.16314e+02       6.90172e+00       4.63086e+00       1.22561e-04       7.60881e+01
 18.100      2.16473e+02       6.74549e+00       4.34559e+00       1.20612e-04       7.49333e+01
 18.200      2.16622e+02       6.59561e+00       4.06182e+00       1.18694e-04       7.37925e+01
 18.300      2.16760e+02       6.45195e+00       3.78326e+00       1.16806e-04       7.26650e+01
 18.400      2.16887e+02       6.31440e+00       3.51357e+00       1.14946e-04       7.15501e+01
 18.500      2.17002e+02       6.18284e+00       3.25646e+00       1.13114e-04       7.04473e+01
 18.600      2.17104e+02       6.05714e+00       3.01545e+00       1.11310e-04       6.93558e+01
 18.700      2.17193e+02       5.93707e+00       2.79167e+00       1.09531e-04       6.82759e+01
 18.800      2.17270e+02       5.82232e+00       2.58436e+00       1.07780e-04       6.72078e+01
 18.900      2.17335e+02       5.71256e+00       2.39269e+00       1.06055e-04       6.61520e+01
 19.000      2.17389e+02       5.60750e+00       2.21584e+00       1.04357e-04       6.51088e+01
 19.100      2.17432e+02       5.50680e+00       2.05300e+00       1.02685e-04       6.40788e+01
 19.200      2.17465e+02       5.41016e+00       1.90335e+00       1.01041e-04       6.30620e+01
 19.300      2.17488e+02       5.31726e+00       1.76607e+00       9.94227e-05       6.20588e+01
 19.400      2.17503e+02       5.22779e+00       1.64033e+00       9.78314e-05       6.10696e+01
 19.500      2.17509e+02       5.14142e+00       1.52533e+00       9.62665e-05       6.00945e+01
 19.600      2.17508e+02       5.05786e+00       1.42024e+00       9.47281e-05       5.91338e+01
 19.700      2.17499e+02       4.97677e+00       1.32424e+00       9.32161e-05       5.81876e+01
 19.800      2.17484e+02       4.89784e+00       1.23652e+00       9.17303e-05       5.72562e+01
 19.900      2.17463e+02       4.82077e+00       1.15625e+00       9.02707e-05       5.63397e+01
 20.000      2.17436e+02       4.74522e+00       1.08262e+00       8.88371e-05       5.54381e+01
 20.100      2.17405e+02       4.67090e+00       1.01481e+00       8.74292e-05       5.45517e+01
 20.200      2.17369e+02       4.59748e+00       9.51993e-01       8.60470e-05       5.36804e+01
 20.300      2.17330e+02       4.52465e+00       8.93362e-01       8.46904e-05       5.28245e+01
