# Data Source: NASA GEOS5 Near-Real-Time
# Model Time = 2010-09-03 18:00:00
# Location = [  39.7393, -104.9900 ]
# Fields = [ Z(km), T(K), U(m/s), V(m/s), R(g/cm3), P(mbar) ]
# Ground Height = 1.589
  0.000      3.03763e+02       1.80250e+00       7.72085e-01       1.17274e-03       1.02239e+03
  0.100      3.03166e+02       1.77972e+00       7.79604e-01       1.16132e-03       1.01045e+03
  0.200      3.02566e+02       1.74556e+00       7.86563e-01       1.15002e-03       9.98638e+02
  0.300      3.01966e+02       1.71289e+00       7.93595e-01       1.13884e-03       9.86966e+02
  0.400      3.01370e+02       1.69459e+00       8.01333e-01       1.12776e-03       9.75433e+02
  0.500      3.00776e+02       1.70005e+00       8.09303e-01       1.11678e-03       9.64036e+02
  0.600      3.00165e+02       1.72301e+00       8.12072e-01       1.10598e-03       9.52777e+02
  0.700      2.99518e+02       1.75404e+00       8.04008e-01       1.09543e-03       9.41653e+02
  0.800      2.98846e+02       1.79397e+00       7.89778e-01       1.08508e-03       9.30662e+02
  0.900      2.98178e+02       1.84835e+00       7.79083e-01       1.07482e-03       9.19803e+02
  1.000      2.97523e+02       1.90898e+00       7.75420e-01       1.06462e-03       9.09071e+02
  1.100      2.96875e+02       1.95317e+00       7.75699e-01       1.05449e-03       8.98459e+02
  1.200      2.96229e+02       1.96621e+00       7.76319e-01       1.04445e-03       8.87966e+02
  1.300      2.95591e+02       1.95595e+00       7.73163e-01       1.03448e-03       8.77600e+02
  1.400      2.94966e+02       1.93411e+00       7.62796e-01       1.02459e-03       8.67367e+02
  1.500      2.94323e+02       1.91448e+00       7.48547e-01       1.01486e-03       8.57261e+02
  1.600      2.93615e+02       1.91185e+00       7.37321e-01       1.00545e-03       8.47269e+02
  1.700      2.92819e+02       1.93255e+00       7.42779e-01       9.96420e-04       8.37383e+02
  1.800      2.91955e+02       1.96751e+00       7.90811e-01       9.87689e-04       8.27595e+02
  1.900      2.91049e+02       2.00639e+00       9.03322e-01       9.79161e-04       8.17902e+02
  2.000      2.90136e+02       2.04187e+00       1.05364e+00       9.70711e-04       8.08301e+02
  2.100      2.89258e+02       2.06830e+00       1.18892e+00       9.62204e-04       7.98793e+02
  2.200      2.88446e+02       2.08489e+00       1.26849e+00       9.53539e-04       7.89378e+02
  2.300      2.87702e+02       2.10414e+00       1.28569e+00       9.44717e-04       7.80056e+02
  2.400      2.87021e+02       2.14115e+00       1.23918e+00       9.35754e-04       7.70829e+02
  2.500      2.86397e+02       2.22117e+00       1.11300e+00       9.26684e-04       7.61697e+02
  2.600      2.85813e+02       2.38091e+00       8.74720e-01       9.17562e-04       7.52662e+02
  2.700      2.85257e+02       2.65267e+00       4.93951e-01       9.08437e-04       7.43725e+02
  2.800      2.84725e+02       3.01752e+00      -2.98656e-02       8.99314e-04       7.34884e+02
  2.900      2.84224e+02       3.42653e+00      -6.79842e-01       8.90173e-04       7.26134e+02
  3.000      2.83755e+02       3.83237e+00      -1.42937e+00       8.81008e-04       7.17474e+02
  3.100      2.83296e+02       4.19940e+00      -2.19545e+00       8.71892e-04       7.08901e+02
  3.200      2.82816e+02       4.49630e+00      -2.87437e+00       8.62923e-04       7.00418e+02
  3.300      2.82288e+02       4.70225e+00      -3.38623e+00       8.54174e-04       6.92023e+02
  3.400      2.81724e+02       4.84533e+00      -3.76202e+00       8.45609e-04       6.83715e+02
  3.500      2.81142e+02       4.96774e+00      -4.06484e+00       8.37165e-04       6.75489e+02
  3.600      2.80558e+02       5.10387e+00      -4.34797e+00       8.28790e-04       6.67344e+02
  3.700      2.79969e+02       5.25046e+00      -4.61756e+00       8.20496e-04       6.59278e+02
  3.800      2.79366e+02       5.39303e+00      -4.86567e+00       8.12311e-04       6.51295e+02
  3.900      2.78739e+02       5.51968e+00      -5.08517e+00       8.04260e-04       6.43393e+02
  4.000      2.78083e+02       5.63565e+00      -5.27422e+00       7.96357e-04       6.35571e+02
  4.100      2.77393e+02       5.75306e+00      -5.43309e+00       7.88608e-04       6.27825e+02
  4.200      2.76665e+02       5.88327e+00      -5.56230e+00       7.81020e-04       6.20152e+02
  4.300      2.75904e+02       6.02714e+00      -5.66538e+00       7.73574e-04       6.12550e+02
  4.400      2.75123e+02       6.17810e+00      -5.74791e+00       7.66233e-04       6.05019e+02
  4.500      2.74334e+02       6.32940e+00      -5.81554e+00       7.58962e-04       5.97560e+02
  4.600      2.73550e+02       6.47275e+00      -5.87276e+00       7.51726e-04       5.90172e+02
  4.700      2.72786e+02       6.59743e+00      -5.92222e+00       7.44488e-04       5.82856e+02
  4.800      2.72054e+02       6.69249e+00      -5.96642e+00       7.37212e-04       5.75610e+02
  4.900      2.71366e+02       6.74893e+00      -6.00633e+00       7.29870e-04       5.68437e+02
  5.000      2.70717e+02       6.76769e+00      -6.03505e+00       7.22476e-04       5.61334e+02
  5.100      2.70100e+02       6.75292e+00      -6.04311e+00       7.15057e-04       5.54304e+02
  5.200      2.69506e+02       6.70882e+00      -6.02129e+00       7.07637e-04       5.47345e+02
  5.300      2.68930e+02       6.64123e+00      -5.97039e+00       7.00230e-04       5.40459e+02
  5.400      2.68373e+02       6.55826e+00      -5.90486e+00       6.92839e-04       5.33646e+02
  5.500      2.67835e+02       6.46816e+00      -5.84008e+00       6.85461e-04       5.26905e+02
  5.600      2.67317e+02       6.37928e+00      -5.79059e+00       6.78101e-04       5.20239e+02
  5.700      2.66807e+02       6.30057e+00      -5.76219e+00       6.70785e-04       5.13644e+02
  5.800      2.66291e+02       6.24133e+00      -5.75578e+00       6.63549e-04       5.07121e+02
  5.900      2.65752e+02       6.21090e+00      -5.77220e+00       6.56433e-04       5.00668e+02
  6.000      2.65177e+02       6.21755e+00      -5.81144e+00       6.49466e-04       4.94282e+02
  6.100      2.64565e+02       6.26392e+00      -5.86903e+00       6.42648e-04       4.87963e+02
  6.200      2.63918e+02       6.35071e+00      -5.93891e+00       6.35969e-04       4.81711e+02
  6.300      2.63239e+02       6.47864e+00      -6.01507e+00       6.29418e-04       4.75522e+02
  6.400      2.62531e+02       6.64692e+00      -6.09160e+00       6.22986e-04       4.69397e+02
  6.500      2.61798e+02       6.84707e+00      -6.16339e+00       6.16662e-04       4.63335e+02
  6.600      2.61043e+02       7.06814e+00      -6.22557e+00       6.10435e-04       4.57334e+02
  6.700      2.60271e+02       7.29915e+00      -6.27324e+00       6.04296e-04       4.51396e+02
  6.800      2.59485e+02       7.52949e+00      -6.30184e+00       5.98233e-04       4.45518e+02
  6.900      2.58690e+02       7.75125e+00      -6.30916e+00       5.92237e-04       4.39700e+02
  7.000      2.57888e+02       7.95788e+00      -6.29418e+00       5.86296e-04       4.33941e+02
  7.100      2.57085e+02       8.14286e+00      -6.25591e+00       5.80399e-04       4.28239e+02
  7.200      2.56285e+02       8.29979e+00      -6.19342e+00       5.74537e-04       4.22593e+02
  7.300      2.55488e+02       8.42743e+00      -6.10811e+00       5.68705e-04       4.17003e+02
  7.400      2.54693e+02       8.53069e+00      -6.00419e+00       5.62908e-04       4.11469e+02
  7.500      2.53900e+02       8.61488e+00      -5.88606e+00       5.57150e-04       4.05991e+02
  7.600      2.53106e+02       8.68529e+00      -5.75809e+00       5.51436e-04       4.00571e+02
  7.700      2.52310e+02       8.74706e+00      -5.62446e+00       5.45770e-04       3.95208e+02
  7.800      2.51511e+02       8.80437e+00      -5.48823e+00       5.40153e-04       3.89902e+02
  7.900      2.50707e+02       8.86106e+00      -5.35207e+00       5.34586e-04       3.84651e+02
  8.000      2.49899e+02       8.92099e+00      -5.21862e+00       5.29070e-04       3.79454e+02
  8.100      2.49084e+02       8.98802e+00      -5.09056e+00       5.23606e-04       3.74311e+02
  8.200      2.48262e+02       9.06642e+00      -4.96938e+00       5.18194e-04       3.69220e+02
  8.300      2.47434e+02       9.16156e+00      -4.85348e+00       5.12832e-04       3.64181e+02
  8.400      2.46601e+02       9.27901e+00      -4.74072e+00       5.07519e-04       3.59194e+02
  8.500      2.45764e+02       9.42435e+00      -4.62899e+00       5.02252e-04       3.54260e+02
  8.600      2.44923e+02       9.60314e+00      -4.51616e+00       4.97030e-04       3.49377e+02
  8.700      2.44080e+02       9.81912e+00      -4.39919e+00       4.91850e-04       3.44546e+02
  8.800      2.43236e+02       1.00710e+01      -4.27262e+00       4.86711e-04       3.39766e+02
  8.900      2.42390e+02       1.03568e+01      -4.13055e+00       4.81609e-04       3.35037e+02
  9.000      2.41545e+02       1.06744e+01      -3.96709e+00       4.76543e-04       3.30356e+02
  9.100      2.40701e+02       1.10216e+01      -3.77635e+00       4.71510e-04       3.25724e+02
  9.200      2.39858e+02       1.13964e+01      -3.55347e+00       4.66508e-04       3.21141e+02
  9.300      2.39017e+02       1.17967e+01      -3.30031e+00       4.61537e-04       3.16605e+02
  9.400      2.38179e+02       1.22203e+01      -3.02141e+00       4.56596e-04       3.12117e+02
  9.500      2.37343e+02       1.26651e+01      -2.72128e+00       4.51687e-04       3.07678e+02
  9.600      2.36511e+02       1.31290e+01      -2.40447e+00       4.46810e-04       3.03288e+02
  9.700      2.35681e+02       1.36099e+01      -2.07553e+00       4.41963e-04       2.98946e+02
  9.800      2.34854e+02       1.41020e+01      -1.74174e+00       4.37151e-04       2.94653e+02
  9.900      2.34025e+02       1.45931e+01      -1.41577e+00       4.32379e-04       2.90408e+02
 10.000      2.33189e+02       1.50699e+01      -1.11093e+00       4.27655e-04       2.86209e+02
 10.100      2.32342e+02       1.55191e+01      -8.40505e-01       4.22984e-04       2.82055e+02
 10.200      2.31480e+02       1.59275e+01      -6.17816e-01       4.18374e-04       2.77946e+02
 10.300      2.30599e+02       1.62821e+01      -4.56141e-01       4.13831e-04       2.73881e+02
 10.400      2.29700e+02       1.65807e+01      -3.67264e-01       4.09350e-04       2.69859e+02
 10.500      2.28797e+02       1.68412e+01      -3.60242e-01       4.04906e-04       2.65880e+02
 10.600      2.27905e+02       1.70833e+01      -4.43849e-01       4.00474e-04       2.61945e+02
 10.700      2.27040e+02       1.73271e+01      -6.26856e-01       3.96028e-04       2.58054e+02
 10.800      2.26216e+02       1.75923e+01      -9.18038e-01       3.91545e-04       2.54207e+02
 10.900      2.25449e+02       1.78989e+01      -1.32616e+00       3.87000e-04       2.50404e+02
 11.000      2.24752e+02       1.82631e+01      -1.85736e+00       3.82375e-04       2.46646e+02
 11.100      2.24129e+02       1.86817e+01      -2.50308e+00       3.77666e-04       2.42934e+02
 11.200      2.23582e+02       1.91446e+01      -3.24976e+00       3.72877e-04       2.39268e+02
 11.300      2.23112e+02       1.96417e+01      -4.08383e+00       3.68012e-04       2.35650e+02
 11.400      2.22722e+02       2.01629e+01      -4.99171e+00       3.63073e-04       2.32080e+02
 11.500      2.22411e+02       2.06982e+01      -5.95984e+00       3.58064e-04       2.28560e+02
 11.600      2.22183e+02       2.12375e+01      -6.97463e+00       3.52990e-04       2.25089e+02
 11.700      2.22034e+02       2.17712e+01      -8.02261e+00       3.47859e-04       2.21669e+02
 11.800      2.21951e+02       2.22925e+01      -9.09079e+00       3.42700e-04       2.18299e+02
 11.900      2.21912e+02       2.27951e+01      -1.01663e+01       3.37546e-04       2.14979e+02
 12.000      2.21901e+02       2.32726e+01      -1.12362e+01       3.32428e-04       2.11709e+02
 12.100      2.21897e+02       2.37189e+01      -1.22876e+01       3.27376e-04       2.08487e+02
 12.200      2.21881e+02       2.41275e+01      -1.33076e+01       3.22416e-04       2.05314e+02
 12.300      2.21835e+02       2.44924e+01      -1.42835e+01       3.17575e-04       2.02190e+02
 12.400      2.21740e+02       2.48071e+01      -1.52022e+01       3.12877e-04       1.99113e+02
 12.500      2.21584e+02       2.50684e+01      -1.60539e+01       3.08332e-04       1.96083e+02
 12.600      2.21372e+02       2.52785e+01      -1.68338e+01       3.03931e-04       1.93098e+02
 12.700      2.21107e+02       2.54398e+01      -1.75376e+01       2.99659e-04       1.90157e+02
 12.800      2.20795e+02       2.55549e+01      -1.81610e+01       2.95507e-04       1.87257e+02
 12.900      2.20440e+02       2.56264e+01      -1.86996e+01       2.91463e-04       1.84398e+02
 13.000      2.20047e+02       2.56567e+01      -1.91493e+01       2.87517e-04       1.81577e+02
 13.100      2.19621e+02       2.56485e+01      -1.95057e+01       2.83659e-04       1.78793e+02
 13.200      2.19166e+02       2.56043e+01      -1.97645e+01       2.79879e-04       1.76046e+02
 13.300      2.18688e+02       2.55266e+01      -1.99221e+01       2.76168e-04       1.73333e+02
 13.400      2.18189e+02       2.54176e+01      -1.99842e+01       2.72521e-04       1.70654e+02
 13.500      2.17673e+02       2.52795e+01      -1.99636e+01       2.68934e-04       1.68009e+02
 13.600      2.17142e+02       2.51143e+01      -1.98730e+01       2.65402e-04       1.65398e+02
 13.700      2.16599e+02       2.49240e+01      -1.97255e+01       2.61924e-04       1.62822e+02
 13.800      2.16046e+02       2.47107e+01      -1.95337e+01       2.58494e-04       1.60280e+02
 13.900      2.15487e+02       2.44765e+01      -1.93106e+01       2.55111e-04       1.57773e+02
 14.000      2.14923e+02       2.42234e+01      -1.90690e+01       2.51771e-04       1.55300e+02
 14.100      2.14358e+02       2.39534e+01      -1.88217e+01       2.48471e-04       1.52861e+02
 14.200      2.13794e+02       2.36686e+01      -1.85817e+01       2.45208e-04       1.50457e+02
 14.300      2.13234e+02       2.33707e+01      -1.83604e+01       2.41978e-04       1.48086e+02
 14.400      2.12681e+02       2.30592e+01      -1.81593e+01       2.38778e-04       1.45749e+02
 14.500      2.12140e+02       2.27326e+01      -1.79757e+01       2.35602e-04       1.43444e+02
 14.600      2.11614e+02       2.23894e+01      -1.78066e+01       2.32443e-04       1.41170e+02
 14.700      2.11107e+02       2.20279e+01      -1.76494e+01       2.29297e-04       1.38926e+02
 14.800      2.10622e+02       2.16468e+01      -1.75012e+01       2.26160e-04       1.36711e+02
 14.900      2.10165e+02       2.12443e+01      -1.73592e+01       2.23027e-04       1.34523e+02
 15.000      2.09737e+02       2.08191e+01      -1.72206e+01       2.19892e-04       1.32363e+02
 15.100      2.09344e+02       2.03695e+01      -1.70825e+01       2.16753e-04       1.30229e+02
 15.200      2.08989e+02       1.98940e+01      -1.69421e+01       2.13606e-04       1.28120e+02
 15.300      2.08675e+02       1.93912e+01      -1.67967e+01       2.10447e-04       1.26036e+02
 15.400      2.08408e+02       1.88595e+01      -1.66434e+01       2.07272e-04       1.23976e+02
 15.500      2.08186e+02       1.82999e+01      -1.64808e+01       2.04086e-04       1.21940e+02
 15.600      2.08007e+02       1.77157e+01      -1.63087e+01       2.00895e-04       1.19930e+02
 15.700      2.07867e+02       1.71104e+01      -1.61269e+01       1.97707e-04       1.17948e+02
 15.800      2.07764e+02       1.64874e+01      -1.59354e+01       1.94529e-04       1.15995e+02
 15.900      2.07695e+02       1.58501e+01      -1.57339e+01       1.91369e-04       1.14072e+02
 16.000      2.07655e+02       1.52020e+01      -1.55223e+01       1.88232e-04       1.12181e+02
 16.100      2.07642e+02       1.45465e+01      -1.53005e+01       1.85126e-04       1.10322e+02
 16.200      2.07653e+02       1.38870e+01      -1.50684e+01       1.82055e-04       1.08498e+02
 16.300      2.07684e+02       1.32270e+01      -1.48258e+01       1.79025e-04       1.06708e+02
 16.400      2.07733e+02       1.25698e+01      -1.45725e+01       1.76041e-04       1.04954e+02
 16.500      2.07795e+02       1.19190e+01      -1.43085e+01       1.73107e-04       1.03236e+02
 16.600      2.07868e+02       1.12779e+01      -1.40335e+01       1.70229e-04       1.01556e+02
 16.700      2.07949e+02       1.06499e+01      -1.37475e+01       1.67409e-04       9.99124e+01
 16.800      2.08035e+02       1.00380e+01      -1.34505e+01       1.64651e-04       9.83070e+01
 16.900      2.08126e+02       9.44236e+00      -1.31434e+01       1.61952e-04       9.67377e+01
 17.000      2.08222e+02       8.86306e+00      -1.28271e+01       1.59309e-04       9.52027e+01
 17.100      2.08322e+02       8.30004e+00      -1.25026e+01       1.56720e-04       9.37005e+01
 17.200      2.08428e+02       7.75323e+00      -1.21709e+01       1.54181e-04       9.22293e+01
 17.300      2.08539e+02       7.22259e+00      -1.18330e+01       1.51690e-04       9.07877e+01
 17.400      2.08655e+02       6.70806e+00      -1.14898e+01       1.49245e-04       8.93741e+01
 17.500      2.08776e+02       6.20959e+00      -1.11424e+01       1.46844e-04       8.79871e+01
 17.600      2.08903e+02       5.72712e+00      -1.07917e+01       1.44483e-04       8.66254e+01
 17.700      2.09036e+02       5.26062e+00      -1.04387e+01       1.42162e-04       8.52877e+01
 17.800      2.09174e+02       4.81002e+00      -1.00845e+01       1.39878e-04       8.39728e+01
 17.900      2.09319e+02       4.37528e+00      -9.72987e+00       1.37628e-04       8.26794e+01
 18.000      2.09469e+02       3.95633e+00      -9.37594e+00       1.35412e-04       8.14065e+01
 18.100      2.09625e+02       3.55314e+00      -9.02364e+00       1.33228e-04       8.01531e+01
 18.200      2.09787e+02       3.16564e+00      -8.67397e+00       1.31074e-04       7.89181e+01
 18.300      2.09956e+02       2.79379e+00      -8.32792e+00       1.28948e-04       7.77005e+01
 18.400      2.10131e+02       2.43754e+00      -7.98646e+00       1.26849e-04       7.64995e+01
 18.500      2.10313e+02       2.09682e+00      -7.65057e+00       1.24775e-04       7.53141e+01
 18.600      2.10501e+02       1.77160e+00      -7.32124e+00       1.22726e-04       7.41435e+01
 18.700      2.10696e+02       1.46181e+00      -6.99946e+00       1.20700e-04       7.29870e+01
 18.800      2.10897e+02       1.16742e+00      -6.68620e+00       1.18696e-04       7.18437e+01
 18.900      2.11106e+02       8.88360e-01      -6.38245e+00       1.16712e-04       7.07131e+01
 19.000      2.11322e+02       6.24575e-01      -6.08918e+00       1.14749e-04       6.95944e+01
 19.100      2.11544e+02       3.75716e-01      -5.80688e+00       1.12805e-04       6.84875e+01
 19.200      2.11773e+02       1.41010e-01      -5.53535e+00       1.10882e-04       6.73929e+01
 19.300      2.12006e+02      -8.03424e-02      -5.27435e+00       1.08982e-04       6.63111e+01
 19.400      2.12244e+02      -2.89155e-01      -5.02360e+00       1.07106e-04       6.52425e+01
 19.500      2.12485e+02      -4.86227e-01      -4.78286e+00       1.05255e-04       6.41876e+01
 19.600      2.12729e+02      -6.72364e-01      -4.55188e+00       1.03429e-04       6.31469e+01
 19.700      2.12974e+02      -8.48369e-01      -4.33040e+00       1.01631e-04       6.21206e+01
 19.800      2.13220e+02      -1.01505e+00      -4.11818e+00       9.98611e-05       6.11092e+01
 19.900      2.13466e+02      -1.17320e+00      -3.91494e+00       9.81197e-05       6.01129e+01
 20.000      2.13711e+02      -1.32364e+00      -3.72045e+00       9.64079e-05       5.91320e+01
 20.100      2.13955e+02      -1.46717e+00      -3.53444e+00       9.47262e-05       5.81667e+01
 20.200      2.14196e+02      -1.60458e+00      -3.35667e+00       9.30753e-05       5.72173e+01
 20.300      2.14433e+02      -1.73669e+00      -3.18688e+00       9.14558e-05       5.62840e+01
