# Data Source: NASA GEOS5 Near-Real-Time
# Model Time = 2010-07-02 18:00:00
# Location = [  39.7393, -104.9900 ]
# Fields = [ Z(km), T(K), U(m/s), V(m/s), R(g/cm3), P(mbar) ]
# Ground Height = 1.589
  0.000      3.11248e+02       1.43038e+00      -1.07816e+00       1.12906e-03       1.00857e+03
  0.100      3.10633e+02       1.39862e+00      -1.07574e+00       1.11810e-03       9.96808e+02
  0.200      3.10016e+02       1.37006e+00      -1.07193e+00       1.10727e-03       9.85187e+02
  0.300      3.09384e+02       1.35644e+00      -1.06170e+00       1.09660e-03       9.73708e+02
  0.400      3.08733e+02       1.36363e+00      -1.04906e+00       1.08612e-03       9.62374e+02
  0.500      3.08073e+02       1.38070e+00      -1.06390e+00       1.07580e-03       9.51188e+02
  0.600      3.07411e+02       1.39531e+00      -1.12679e+00       1.06561e-03       9.40154e+02
  0.700      3.06747e+02       1.40348e+00      -1.18124e+00       1.05555e-03       9.29267e+02
  0.800      3.06076e+02       1.40461e+00      -1.15072e+00       1.04563e-03       9.18523e+02
  0.900      3.05398e+02       1.40459e+00      -1.05366e+00       1.03585e-03       9.07916e+02
  1.000      3.04721e+02       1.41419e+00      -9.80452e-01       1.02617e-03       8.97439e+02
  1.100      3.04054e+02       1.43460e+00      -9.89485e-01       1.01656e-03       8.87089e+02
  1.200      3.03406e+02       1.44797e+00      -1.07270e+00       1.00701e-03       8.76878e+02
  1.300      3.02782e+02       1.43694e+00      -1.20993e+00       9.97502e-04       8.66813e+02
  1.400      3.02157e+02       1.40346e+00      -1.35029e+00       9.88122e-04       8.56889e+02
  1.500      3.01493e+02       1.35773e+00      -1.43008e+00       9.78975e-04       8.47093e+02
  1.600      3.00770e+02       1.30826e+00      -1.41685e+00       9.70116e-04       8.37414e+02
  1.700      2.99997e+02       1.26055e+00      -1.33147e+00       9.61507e-04       8.27849e+02
  1.800      2.99185e+02       1.21899e+00      -1.19945e+00       9.53102e-04       8.18392e+02
  1.900      2.98352e+02       1.17917e+00      -1.04063e+00       9.44840e-04       8.09038e+02
  2.000      2.97516e+02       1.13155e+00      -8.71508e-01       9.36653e-04       7.99780e+02
  2.100      2.96694e+02       1.07141e+00      -7.08434e-01       9.28483e-04       7.90613e+02
  2.200      2.95890e+02       1.01233e+00      -5.67386e-01       9.20315e-04       7.81536e+02
  2.300      2.95107e+02       9.71999e-01      -4.64139e-01       9.12144e-04       7.72547e+02
  2.400      2.94340e+02       9.58192e-01      -4.02560e-01       9.03984e-04       7.63646e+02
  2.500      2.93574e+02       9.60560e-01      -3.64853e-01       8.95882e-04       7.54831e+02
  2.600      2.92792e+02       9.67488e-01      -3.31104e-01       8.87888e-04       7.46102e+02
  2.700      2.91981e+02       9.86827e-01      -2.86674e-01       8.80037e-04       7.37458e+02
  2.800      2.91135e+02       1.04873e+00      -2.22974e-01       8.72348e-04       7.28896e+02
  2.900      2.90245e+02       1.18302e+00      -1.32318e-01       8.64837e-04       7.20412e+02
  3.000      2.89321e+02       1.38949e+00      -1.78711e-02       8.57474e-04       7.12005e+02
  3.100      2.88386e+02       1.64111e+00       1.07471e-01       8.50187e-04       7.03673e+02
  3.200      2.87463e+02       1.91035e+00       2.31027e-01       8.42907e-04       6.95415e+02
  3.300      2.86562e+02       2.17868e+00       3.50085e-01       8.35607e-04       6.87230e+02
  3.400      2.85681e+02       2.43532e+00       4.70541e-01       8.28288e-04       6.79118e+02
  3.500      2.84819e+02       2.66987e+00       5.98422e-01       8.20958e-04       6.71076e+02
  3.600      2.83970e+02       2.87524e+00       7.36172e-01       8.13631e-04       6.63104e+02
  3.700      2.83125e+02       3.04776e+00       8.82540e-01       8.06335e-04       6.55204e+02
  3.800      2.82276e+02       3.18397e+00       1.03611e+00       7.99098e-04       6.47375e+02
  3.900      2.81417e+02       3.28339e+00       1.19584e+00       7.91932e-04       6.39617e+02
  4.000      2.80550e+02       3.35008e+00       1.36122e+00       7.84833e-04       6.31930e+02
  4.100      2.79677e+02       3.38852e+00       1.53179e+00       7.77793e-04       6.24313e+02
  4.200      2.78799e+02       3.40481e+00       1.70742e+00       7.70808e-04       6.16765e+02
  4.300      2.77917e+02       3.40998e+00       1.88892e+00       7.63877e-04       6.09285e+02
  4.400      2.77031e+02       3.41604e+00       2.07726e+00       7.56997e-04       6.01872e+02
  4.500      2.76141e+02       3.43420e+00       2.27410e+00       7.50166e-04       5.94526e+02
  4.600      2.75257e+02       3.46903e+00       2.48669e+00       7.43362e-04       5.87246e+02
  4.700      2.74390e+02       3.52162e+00       2.72525e+00       7.36549e-04       5.80032e+02
  4.800      2.73553e+02       3.59304e+00       2.99999e+00       7.29698e-04       5.72883e+02
  4.900      2.72751e+02       3.68462e+00       3.31932e+00       7.22795e-04       5.65801e+02
  5.000      2.71978e+02       3.79814e+00       3.68860e+00       7.15861e-04       5.58785e+02
  5.100      2.71226e+02       3.93545e+00       4.11289e+00       7.08920e-04       5.51836e+02
  5.200      2.70488e+02       4.09758e+00       4.59433e+00       7.01991e-04       5.44956e+02
  5.300      2.69762e+02       4.27837e+00       5.10839e+00       6.95081e-04       5.38143e+02
  5.400      2.69049e+02       4.46776e+00       5.61615e+00       6.88187e-04       5.31398e+02
  5.500      2.68352e+02       4.65565e+00       6.07859e+00       6.81306e-04       5.24721e+02
  5.600      2.67670e+02       4.83286e+00       6.46649e+00       6.74437e-04       5.18111e+02
  5.700      2.67000e+02       4.99343e+00       6.78532e+00       6.67590e-04       5.11567e+02
  5.800      2.66337e+02       5.13210e+00       7.04817e+00       6.60777e-04       5.05089e+02
  5.900      2.65676e+02       5.24368e+00       7.26815e+00       6.54007e-04       4.98675e+02
  6.000      2.65016e+02       5.33434e+00       7.45931e+00       6.47289e-04       4.92324e+02
  6.100      2.64355e+02       5.43512e+00       7.63780e+00       6.40619e-04       4.86037e+02
  6.200      2.63697e+02       5.58034e+00       7.82002e+00       6.33995e-04       4.79815e+02
  6.300      2.63043e+02       5.80419e+00       8.02238e+00       6.27415e-04       4.73657e+02
  6.400      2.62394e+02       6.12080e+00       8.25495e+00       6.20874e-04       4.67563e+02
  6.500      2.61752e+02       6.50180e+00       8.51453e+00       6.14370e-04       4.61533e+02
  6.600      2.61119e+02       6.91344e+00       8.79623e+00       6.07897e-04       4.55565e+02
  6.700      2.60496e+02       7.32195e+00       9.09514e+00       6.01452e-04       4.49660e+02
  6.800      2.59884e+02       7.70277e+00       9.40686e+00       5.95034e-04       4.43817e+02
  6.900      2.59283e+02       8.06234e+00       9.72860e+00       5.88643e-04       4.38035e+02
  7.000      2.58692e+02       8.41360e+00       1.00579e+01       5.82284e-04       4.32315e+02
  7.100      2.58111e+02       8.76948e+00       1.03923e+01       5.75960e-04       4.26658e+02
  7.200      2.57536e+02       9.14123e+00       1.07294e+01       5.69674e-04       4.21063e+02
  7.300      2.56965e+02       9.52300e+00       1.10674e+01       5.63437e-04       4.15530e+02
  7.400      2.56391e+02       9.89895e+00       1.14046e+01       5.57263e-04       4.10057e+02
  7.500      2.55806e+02       1.02531e+01       1.17393e+01       5.51164e-04       4.04644e+02
  7.600      2.55204e+02       1.05696e+01       1.20700e+01       5.45153e-04       3.99289e+02
  7.700      2.54582e+02       1.08422e+01       1.23896e+01       5.39234e-04       3.93992e+02
  7.800      2.53950e+02       1.10914e+01       1.26761e+01       5.33388e-04       3.88752e+02
  7.900      2.53316e+02       1.13420e+01       1.29052e+01       5.27592e-04       3.83568e+02
  8.000      2.52693e+02       1.16188e+01       1.30523e+01       5.21824e-04       3.78441e+02
  8.100      2.52089e+02       1.19465e+01       1.30935e+01       5.16064e-04       3.73370e+02
  8.200      2.51511e+02       1.23379e+01       1.30254e+01       5.10303e-04       3.68355e+02
  8.300      2.50952e+02       1.27872e+01       1.28775e+01       5.04553e-04       3.63396e+02
  8.400      2.50408e+02       1.32869e+01       1.26825e+01       4.98827e-04       3.58493e+02
  8.500      2.49872e+02       1.38295e+01       1.24730e+01       4.93137e-04       3.53645e+02
  8.600      2.49339e+02       1.44073e+01       1.22815e+01       4.87496e-04       3.48854e+02
  8.700      2.48805e+02       1.50055e+01       1.21258e+01       4.81911e-04       3.44118e+02
  8.800      2.48268e+02       1.55940e+01       1.19951e+01       4.76383e-04       3.39437e+02
  8.900      2.47728e+02       1.61414e+01       1.18751e+01       4.70914e-04       3.34811e+02
  9.000      2.47185e+02       1.66159e+01       1.17513e+01       4.65502e-04       3.30237e+02
  9.100      2.46636e+02       1.69860e+01       1.16095e+01       4.60150e-04       3.25715e+02
  9.200      2.46083e+02       1.72262e+01       1.14381e+01       4.54856e-04       3.21245e+02
  9.300      2.45525e+02       1.73515e+01       1.12447e+01       4.49618e-04       3.16827e+02
  9.400      2.44965e+02       1.73929e+01       1.10443e+01       4.44434e-04       3.12458e+02
  9.500      2.44403e+02       1.73814e+01       1.08521e+01       4.39299e-04       3.08141e+02
  9.600      2.43842e+02       1.73481e+01       1.06831e+01       4.34212e-04       3.03873e+02
  9.700      2.43282e+02       1.73240e+01       1.05525e+01       4.29169e-04       2.99655e+02
  9.800      2.42724e+02       1.73320e+01       1.04687e+01       4.24171e-04       2.95486e+02
  9.900      2.42162e+02       1.73690e+01       1.04191e+01       4.19228e-04       2.91365e+02
 10.000      2.41587e+02       1.74272e+01       1.03873e+01       4.14350e-04       2.87292e+02
 10.100      2.40994e+02       1.74986e+01       1.03567e+01       4.09550e-04       2.83266e+02
 10.200      2.40374e+02       1.75752e+01       1.03106e+01       4.04838e-04       2.79287e+02
 10.300      2.39720e+02       1.76490e+01       1.02327e+01       4.00224e-04       2.75353e+02
 10.400      2.39028e+02       1.77123e+01       1.01126e+01       3.95713e-04       2.71464e+02
 10.500      2.38308e+02       1.77586e+01       9.97338e+00       3.91288e-04       2.67619e+02
 10.600      2.37575e+02       1.77815e+01       9.84910e+00       3.86921e-04       2.63819e+02
 10.700      2.36844e+02       1.77749e+01       9.77371e+00       3.82589e-04       2.60062e+02
 10.800      2.36130e+02       1.77325e+01       9.78117e+00       3.78267e-04       2.56349e+02
 10.900      2.35447e+02       1.76481e+01       9.90548e+00       3.73933e-04       2.52679e+02
 11.000      2.34812e+02       1.75157e+01       1.01804e+01       3.69563e-04       2.49052e+02
 11.100      2.34229e+02       1.73412e+01       1.06139e+01       3.65151e-04       2.45468e+02
 11.200      2.33687e+02       1.71540e+01       1.11656e+01       3.60716e-04       2.41926e+02
 11.300      2.33173e+02       1.69854e+01       1.17901e+01       3.56280e-04       2.38426e+02
 11.400      2.32676e+02       1.68673e+01       1.24417e+01       3.51865e-04       2.34968e+02
 11.500      2.32180e+02       1.68313e+01       1.30748e+01       3.47488e-04       2.31551e+02
 11.600      2.31674e+02       1.69089e+01       1.36438e+01       3.43172e-04       2.28177e+02
 11.700      2.31145e+02       1.71318e+01       1.41030e+01       3.38933e-04       2.24843e+02
 11.800      2.30582e+02       1.75179e+01       1.44185e+01       3.34784e-04       2.21551e+02
 11.900      2.29987e+02       1.80372e+01       1.45960e+01       3.30724e-04       2.18299e+02
 12.000      2.29362e+02       1.86494e+01       1.46501e+01       3.26747e-04       2.15087e+02
 12.100      2.28709e+02       1.93141e+01       1.45954e+01       3.22845e-04       2.11914e+02
 12.200      2.28032e+02       1.99910e+01       1.44464e+01       3.19015e-04       2.08780e+02
 12.300      2.27334e+02       2.06399e+01       1.42177e+01       3.15249e-04       2.05684e+02
 12.400      2.26618e+02       2.12204e+01       1.39238e+01       3.11545e-04       2.02626e+02
 12.500      2.25885e+02       2.16921e+01       1.35793e+01       3.07895e-04       1.99605e+02
 12.600      2.25140e+02       2.20252e+01       1.31988e+01       3.04296e-04       1.96621e+02
 12.700      2.24383e+02       2.22183e+01       1.27972e+01       3.00744e-04       1.93673e+02
 12.800      2.23616e+02       2.22746e+01       1.23892e+01       2.97236e-04       1.90759e+02
 12.900      2.22840e+02       2.21973e+01       1.19899e+01       2.93767e-04       1.87879e+02
 13.000      2.22058e+02       2.19899e+01       1.16141e+01       2.90336e-04       1.85033e+02
 13.100      2.21270e+02       2.16555e+01       1.12767e+01       2.86939e-04       1.82219e+02
 13.200      2.20478e+02       2.11975e+01       1.09925e+01       2.83573e-04       1.79437e+02
 13.300      2.19684e+02       2.06191e+01       1.07765e+01       2.80235e-04       1.76686e+02
 13.400      2.18888e+02       1.99237e+01       1.06432e+01       2.76923e-04       1.73965e+02
 13.500      2.18094e+02       1.91200e+01       1.05972e+01       2.73633e-04       1.71275e+02
 13.600      2.17304e+02       1.82235e+01       1.06287e+01       2.70364e-04       1.68616e+02
 13.700      2.16521e+02       1.72505e+01       1.07273e+01       2.67113e-04       1.65988e+02
 13.800      2.15748e+02       1.62171e+01       1.08823e+01       2.63878e-04       1.63392e+02
 13.900      2.14987e+02       1.51395e+01       1.10831e+01       2.60657e-04       1.60829e+02
 14.000      2.14242e+02       1.40338e+01       1.13192e+01       2.57448e-04       1.58299e+02
 14.100      2.13516e+02       1.29163e+01       1.15799e+01       2.54250e-04       1.55802e+02
 14.200      2.12811e+02       1.18031e+01       1.18547e+01       2.51059e-04       1.53339e+02
 14.300      2.12131e+02       1.07104e+01       1.21330e+01       2.47875e-04       1.50910e+02
 14.400      2.11479e+02       9.65382e+00       1.24043e+01       2.44695e-04       1.48516e+02
 14.500      2.10854e+02       8.64279e+00       1.26613e+01       2.41519e-04       1.46156e+02
 14.600      2.10259e+02       7.68196e+00       1.28983e+01       2.38345e-04       1.43828e+02
 14.700      2.09694e+02       6.77592e+00       1.31101e+01       2.35172e-04       1.41531e+02
 14.800      2.09157e+02       5.92925e+00       1.32912e+01       2.31999e-04       1.39265e+02
 14.900      2.08651e+02       5.14653e+00       1.34362e+01       2.28826e-04       1.37028e+02
 15.000      2.08174e+02       4.43235e+00       1.35396e+01       2.25653e-04       1.34819e+02
 15.100      2.07729e+02       3.79128e+00       1.35962e+01       2.22478e-04       1.32637e+02
 15.200      2.07313e+02       3.22792e+00       1.36005e+01       2.19301e-04       1.30482e+02
 15.300      2.06929e+02       2.74684e+00       1.35471e+01       2.16121e-04       1.28352e+02
 15.400      2.06576e+02       2.35264e+00       1.34306e+01       2.12939e-04       1.26246e+02
 15.500      2.06255e+02       2.04972e+00       1.32457e+01       2.09755e-04       1.24165e+02
 15.600      2.05965e+02       1.83634e+00       1.29931e+01       2.06570e-04       1.22107e+02
 15.700      2.05705e+02       1.70278e+00       1.26805e+01       2.03390e-04       1.20076e+02
 15.800      2.05474e+02       1.63878e+00       1.23167e+01       2.00220e-04       1.18072e+02
 15.900      2.05272e+02       1.63410e+00       1.19101e+01       1.97066e-04       1.16097e+02
 16.000      2.05096e+02       1.67849e+00       1.14691e+01       1.93931e-04       1.14153e+02
 16.100      2.04946e+02       1.76170e+00       1.10023e+01       1.90821e-04       1.12240e+02
 16.200      2.04821e+02       1.87348e+00       1.05182e+01       1.87739e-04       1.10360e+02
 16.300      2.04720e+02       2.00359e+00       1.00253e+01       1.84690e-04       1.08514e+02
 16.400      2.04642e+02       2.14177e+00       9.53203e+00       1.81678e-04       1.06704e+02
 16.500      2.04586e+02       2.27778e+00       9.04695e+00       1.78705e-04       1.04928e+02
 16.600      2.04550e+02       2.40137e+00       8.57855e+00       1.75775e-04       1.03190e+02
 16.700      2.04533e+02       2.50230e+00       8.13532e+00       1.72891e-04       1.01489e+02
 16.800      2.04535e+02       2.57030e+00       7.72577e+00       1.70056e-04       9.98252e+01
 16.900      2.04554e+02       2.59798e+00       7.35602e+00       1.67271e-04       9.81998e+01
 17.000      2.04591e+02       2.58621e+00       7.02530e+00       1.64535e-04       9.66108e+01
 17.100      2.04644e+02       2.53736e+00       6.73162e+00       1.61845e-04       9.50563e+01
 17.200      2.04714e+02       2.45379e+00       6.47294e+00       1.59200e-04       9.35349e+01
 17.300      2.04800e+02       2.33789e+00       6.24727e+00       1.56598e-04       9.20448e+01
 17.400      2.04902e+02       2.19202e+00       6.05257e+00       1.54038e-04       9.05846e+01
 17.500      2.05019e+02       2.01856e+00       5.88684e+00       1.51516e-04       8.91527e+01
 17.600      2.05151e+02       1.81987e+00       5.74806e+00       1.49033e-04       8.77479e+01
 17.700      2.05298e+02       1.59834e+00       5.63422e+00       1.46585e-04       8.63688e+01
 17.800      2.05459e+02       1.35633e+00       5.54331e+00       1.44173e-04       8.50141e+01
 17.900      2.05635e+02       1.09621e+00       5.47330e+00       1.41794e-04       8.36826e+01
 18.000      2.05824e+02       8.20359e-01       5.42218e+00       1.39447e-04       8.23732e+01
 18.100      2.06027e+02       5.31145e-01       5.38794e+00       1.37130e-04       8.10848e+01
 18.200      2.06243e+02       2.30941e-01       5.36857e+00       1.34844e-04       7.98163e+01
 18.300      2.06471e+02      -7.78750e-02       5.36204e+00       1.32586e-04       7.85668e+01
 18.400      2.06712e+02      -3.92942e-01       5.36634e+00       1.30355e-04       7.73353e+01
 18.500      2.06965e+02      -7.11883e-01       5.37947e+00       1.28151e-04       7.61208e+01
 18.600      2.07230e+02      -1.03232e+00       5.39940e+00       1.25973e-04       7.49226e+01
 18.700      2.07507e+02      -1.35190e+00       5.42412e+00       1.23819e-04       7.37398e+01
 18.800      2.07794e+02      -1.66822e+00       5.45161e+00       1.21689e-04       7.25717e+01
 18.900      2.08092e+02      -1.97893e+00       5.47986e+00       1.19582e-04       7.14174e+01
 19.000      2.08401e+02      -2.28166e+00       5.50686e+00       1.17497e-04       7.02765e+01
 19.100      2.08720e+02      -2.57422e+00       5.53071e+00       1.15434e-04       6.91481e+01
 19.200      2.09047e+02      -2.85600e+00       5.55064e+00       1.13394e-04       6.80327e+01
 19.300      2.09383e+02      -3.12720e+00       5.56642e+00       1.11378e-04       6.69305e+01
 19.400      2.09726e+02      -3.38805e+00       5.57784e+00       1.09388e-04       6.58422e+01
 19.500      2.10074e+02      -3.63875e+00       5.58466e+00       1.07426e-04       6.47682e+01
 19.600      2.10426e+02      -3.87951e+00       5.58667e+00       1.05492e-04       6.37089e+01
 19.700      2.10782e+02      -4.11053e+00       5.58365e+00       1.03587e-04       6.26646e+01
 19.800      2.11140e+02      -4.33203e+00       5.57538e+00       1.01714e-04       6.16357e+01
 19.900      2.11499e+02      -4.54422e+00       5.56163e+00       9.98720e-05       6.06225e+01
 20.000      2.11857e+02      -4.74730e+00       5.54219e+00       9.80628e-05       5.96252e+01
 20.100      2.12215e+02      -4.94149e+00       5.51684e+00       9.62870e-05       5.86442e+01
 20.200      2.12569e+02      -5.12699e+00       5.48535e+00       9.45453e-05       5.76796e+01
 20.300      2.12920e+02      -5.30401e+00       5.44751e+00       9.28382e-05       5.67316e+01
