# Data Source: NASA GEOS5 Near-Real-Time
# Model Time = 2010-06-17 18:00:00
# Location = [  39.7393, -104.9900 ]
# Fields = [ Z(km), T(K), U(m/s), V(m/s), R(g/cm3), P(mbar) ]
# Ground Height = 1.589
  0.000      3.08538e+02       5.31769e+00       2.88642e+00       1.13762e-03       1.00736e+03
  0.100      3.07921e+02       5.25691e+00       2.89390e+00       1.12659e-03       9.95605e+02
  0.200      3.07299e+02       5.20534e+00       2.90387e+00       1.11570e-03       9.83988e+02
  0.300      3.06654e+02       5.18738e+00       2.92284e+00       1.10501e-03       9.72516e+02
  0.400      3.05983e+02       5.20776e+00       2.94445e+00       1.09454e-03       9.61191e+02
  0.500      3.05305e+02       5.22929e+00       2.93489e+00       1.08420e-03       9.50007e+02
  0.600      3.04640e+02       5.22071e+00       2.87122e+00       1.07393e-03       9.38959e+02
  0.700      3.03988e+02       5.19587e+00       2.78816e+00       1.06373e-03       9.28048e+02
  0.800      3.03344e+02       5.18011e+00       2.73161e+00       1.05362e-03       9.17277e+02
  0.900      3.02698e+02       5.20053e+00       2.71646e+00       1.04363e-03       9.06643e+02
  1.000      3.02038e+02       5.28423e+00       2.73991e+00       1.03379e-03       8.96138e+02
  1.100      3.01372e+02       5.40921e+00       2.78877e+00       1.02407e-03       8.85760e+02
  1.200      3.00735e+02       5.48430e+00       2.83546e+00       1.01437e-03       8.75515e+02
  1.300      3.00153e+02       5.43971e+00       2.85709e+00       1.00461e-03       8.65408e+02
  1.400      2.99580e+02       5.32950e+00       2.85780e+00       9.94929e-04       8.55433e+02
  1.500      2.98952e+02       5.24248e+00       2.84967e+00       9.85535e-04       8.45581e+02
  1.600      2.98235e+02       5.22842e+00       2.84858e+00       9.76528e-04       8.35844e+02
  1.700      2.97430e+02       5.29262e+00       2.87469e+00       9.67895e-04       8.26217e+02
  1.800      2.96541e+02       5.43263e+00       2.94346e+00       9.59607e-04       8.16695e+02
  1.900      2.95604e+02       5.61450e+00       3.04131e+00       9.51542e-04       8.07272e+02
  2.000      2.94664e+02       5.79294e+00       3.14414e+00       9.43545e-04       7.97942e+02
  2.100      2.93751e+02       5.94243e+00       3.23741e+00       9.35515e-04       7.88700e+02
  2.200      2.92868e+02       6.07908e+00       3.32675e+00       9.27443e-04       7.79546e+02
  2.300      2.92014e+02       6.22377e+00       3.41983e+00       9.19338e-04       7.70479e+02
  2.400      2.91178e+02       6.38620e+00       3.51261e+00       9.11232e-04       7.61498e+02
  2.500      2.90340e+02       6.56489e+00       3.58933e+00       9.03183e-04       7.52600e+02
  2.600      2.89482e+02       6.75979e+00       3.63565e+00       8.95247e-04       7.43783e+02
  2.700      2.88596e+02       6.98990e+00       3.65634e+00       8.87447e-04       7.35047e+02
  2.800      2.87681e+02       7.28534e+00       3.66727e+00       8.79788e-04       7.26393e+02
  2.900      2.86735e+02       7.66968e+00       3.68322e+00       8.72274e-04       7.17819e+02
  3.000      2.85761e+02       8.12311e+00       3.71080e+00       8.64886e-04       7.09323e+02
  3.100      2.84767e+02       8.60831e+00       3.75329e+00       8.57601e-04       7.00901e+02
  3.200      2.83759e+02       9.08840e+00       3.81489e+00       8.50393e-04       6.92549e+02
  3.300      2.82745e+02       9.52918e+00       3.90463e+00       8.43237e-04       6.84268e+02
  3.400      2.81733e+02       9.89735e+00       4.03323e+00       8.36108e-04       6.76056e+02
  3.500      2.80731e+02       1.01726e+01       4.20684e+00       8.28986e-04       6.67913e+02
  3.600      2.79730e+02       1.04114e+01       4.40462e+00       8.21897e-04       6.59840e+02
  3.700      2.78716e+02       1.06982e+01       4.59586e+00       8.14882e-04       6.51836e+02
  3.800      2.77680e+02       1.11142e+01       4.75026e+00       8.07965e-04       6.43900e+02
  3.900      2.76646e+02       1.17111e+01       4.84112e+00       8.01074e-04       6.36033e+02
  4.000      2.75660e+02       1.25266e+01       4.84350e+00       7.94084e-04       6.28235e+02
  4.100      2.74761e+02       1.35930e+01       4.73521e+00       7.86882e-04       6.20508e+02
  4.200      2.73968e+02       1.48610e+01       4.53818e+00       7.79426e-04       6.12853e+02
  4.300      2.73275e+02       1.62156e+01       4.30986e+00       7.71736e-04       6.05272e+02
  4.400      2.72678e+02       1.75404e+01       4.10841e+00       7.63835e-04       5.97766e+02
  4.500      2.72163e+02       1.87655e+01       3.96751e+00       7.55771e-04       5.90337e+02
  4.600      2.71699e+02       1.99000e+01       3.87924e+00       7.47633e-04       5.82987e+02
  4.700      2.71256e+02       2.09606e+01       3.83161e+00       7.39513e-04       5.75716e+02
  4.800      2.70806e+02       2.19566e+01       3.81557e+00       7.31490e-04       5.68524e+02
  4.900      2.70343e+02       2.28566e+01       3.83777e+00       7.23577e-04       5.61412e+02
  5.000      2.69867e+02       2.36158e+01       3.91015e+00       7.15769e-04       5.54377e+02
  5.100      2.69382e+02       2.41896e+01       4.04437e+00       7.08060e-04       5.47419e+02
  5.200      2.68883e+02       2.45568e+01       4.23898e+00       7.00455e-04       5.40536e+02
  5.300      2.68361e+02       2.47284e+01       4.47421e+00       6.92975e-04       5.33727e+02
  5.400      2.67807e+02       2.47176e+01       4.72894e+00       6.85641e-04       5.26988e+02
  5.500      2.67214e+02       2.45392e+01       4.98288e+00       6.78468e-04       5.20320e+02
  5.600      2.66584e+02       2.42226e+01       5.22432e+00       6.71446e-04       5.13720e+02
  5.700      2.65928e+02       2.38055e+01       5.44660e+00       6.64543e-04       5.07188e+02
  5.800      2.65258e+02       2.33257e+01       5.64311e+00       6.57731e-04       5.00724e+02
  5.900      2.64584e+02       2.28177e+01       5.80829e+00       6.50982e-04       4.94327e+02
  6.000      2.63909e+02       2.22954e+01       5.94241e+00       6.44287e-04       4.87996e+02
  6.100      2.63238e+02       2.17661e+01       6.04780e+00       6.37637e-04       4.81730e+02
  6.200      2.62571e+02       2.12366e+01       6.12679e+00       6.31027e-04       4.75529e+02
  6.300      2.61911e+02       2.07150e+01       6.18193e+00       6.24453e-04       4.69392e+02
  6.400      2.61255e+02       2.02127e+01       6.21676e+00       6.17922e-04       4.63319e+02
  6.500      2.60596e+02       1.97429e+01       6.23521e+00       6.11448e-04       4.57308e+02
  6.600      2.59930e+02       1.93183e+01       6.24117e+00       6.05040e-04       4.51359e+02
  6.700      2.59252e+02       1.89504e+01       6.23948e+00       5.98711e-04       4.45472e+02
  6.800      2.58560e+02       1.86381e+01       6.24248e+00       5.92462e-04       4.39647e+02
  6.900      2.57856e+02       1.83741e+01       6.26619e+00       5.86292e-04       4.33883e+02
  7.000      2.57138e+02       1.81510e+01       6.32663e+00       5.80200e-04       4.28179e+02
  7.100      2.56408e+02       1.79618e+01       6.43940e+00       5.74184e-04       4.22536e+02
  7.200      2.55664e+02       1.78038e+01       6.60571e+00       5.68244e-04       4.16953e+02
  7.300      2.54908e+02       1.76795e+01       6.80996e+00       5.62378e-04       4.11427e+02
  7.400      2.54138e+02       1.75918e+01       7.03553e+00       5.56583e-04       4.05958e+02
  7.500      2.53354e+02       1.75437e+01       7.26583e+00       5.50860e-04       4.00545e+02
  7.600      2.52558e+02       1.75368e+01       7.48670e+00       5.45204e-04       3.95186e+02
  7.700      2.51753e+02       1.75656e+01       7.69715e+00       5.39606e-04       3.89882e+02
  7.800      2.50945e+02       1.76221e+01       7.90062e+00       5.34054e-04       3.84632e+02
  7.900      2.50140e+02       1.76985e+01       8.10057e+00       5.28537e-04       3.79437e+02
  8.000      2.49343e+02       1.77868e+01       8.30047e+00       5.23042e-04       3.74297e+02
  8.100      2.48560e+02       1.78774e+01       8.50215e+00       5.17565e-04       3.69213e+02
  8.200      2.47785e+02       1.79563e+01       8.70319e+00       5.12109e-04       3.64183e+02
  8.300      2.47017e+02       1.80084e+01       8.90046e+00       5.06682e-04       3.59207e+02
  8.400      2.46251e+02       1.80190e+01       9.09082e+00       5.01291e-04       3.54283e+02
  8.500      2.45484e+02       1.79731e+01       9.27113e+00       4.95943e-04       3.49411e+02
  8.600      2.44712e+02       1.78622e+01       9.44164e+00       4.90643e-04       3.44589e+02
  8.700      2.43935e+02       1.76955e+01       9.61202e+00       4.85390e-04       3.39819e+02
  8.800      2.43156e+02       1.74853e+01       9.79357e+00       4.80183e-04       3.35099e+02
  8.900      2.42373e+02       1.72437e+01       9.99756e+00       4.75023e-04       3.30431e+02
  9.000      2.41588e+02       1.69830e+01       1.02353e+01       4.69907e-04       3.25814e+02
  9.100      2.40801e+02       1.67148e+01       1.05165e+01       4.64836e-04       3.21247e+02
  9.200      2.40011e+02       1.64468e+01       1.08396e+01       4.59810e-04       3.16731e+02
  9.300      2.39217e+02       1.61850e+01       1.11983e+01       4.54829e-04       3.12264e+02
  9.400      2.38418e+02       1.59352e+01       1.15865e+01       4.49896e-04       3.07846e+02
  9.500      2.37613e+02       1.57036e+01       1.19980e+01       4.45011e-04       3.03475e+02
  9.600      2.36800e+02       1.54959e+01       1.24264e+01       4.40176e-04       2.99151e+02
  9.700      2.35980e+02       1.53165e+01       1.28640e+01       4.35390e-04       2.94873e+02
  9.800      2.35155e+02       1.51656e+01       1.32998e+01       4.30648e-04       2.90641e+02
  9.900      2.34326e+02       1.50429e+01       1.37222e+01       4.25946e-04       2.86455e+02
 10.000      2.33498e+02       1.49481e+01       1.41197e+01       4.21280e-04       2.82316e+02
 10.100      2.32671e+02       1.48811e+01       1.44808e+01       4.16645e-04       2.78222e+02
 10.200      2.31850e+02       1.48414e+01       1.47939e+01       4.12037e-04       2.74174e+02
 10.300      2.31036e+02       1.48244e+01       1.50528e+01       4.07453e-04       2.70171e+02
 10.400      2.30229e+02       1.48158e+01       1.52625e+01       4.02894e-04       2.66215e+02
 10.500      2.29428e+02       1.48000e+01       1.54299e+01       3.98359e-04       2.62303e+02
 10.600      2.28634e+02       1.47616e+01       1.55615e+01       3.93849e-04       2.58435e+02
 10.700      2.27846e+02       1.46847e+01       1.56640e+01       3.89365e-04       2.54612e+02
 10.800      2.27064e+02       1.45540e+01       1.57441e+01       3.84905e-04       2.50833e+02
 10.900      2.26289e+02       1.43572e+01       1.58088e+01       3.80472e-04       2.47097e+02
 11.000      2.25518e+02       1.41095e+01       1.58684e+01       3.76066e-04       2.43404e+02
 11.100      2.24751e+02       1.38389e+01       1.59342e+01       3.71691e-04       2.39754e+02
 11.200      2.23986e+02       1.35737e+01       1.60179e+01       3.67347e-04       2.36146e+02
 11.300      2.23222e+02       1.33418e+01       1.61311e+01       3.63038e-04       2.32580e+02
 11.400      2.22458e+02       1.31716e+01       1.62854e+01       3.58766e-04       2.29055e+02
 11.500      2.21692e+02       1.30912e+01       1.64922e+01       3.54532e-04       2.25573e+02
 11.600      2.20923e+02       1.31250e+01       1.67610e+01       3.50337e-04       2.22131e+02
 11.700      2.20156e+02       1.32725e+01       1.70853e+01       3.46175e-04       2.18730e+02
 11.800      2.19397e+02       1.35233e+01       1.74530e+01       3.42035e-04       2.15369e+02
 11.900      2.18653e+02       1.38666e+01       1.78513e+01       3.37909e-04       2.12050e+02
 12.000      2.17931e+02       1.42920e+01       1.82680e+01       3.33787e-04       2.08771e+02
 12.100      2.17235e+02       1.47889e+01       1.86905e+01       3.29661e-04       2.05532e+02
 12.200      2.16574e+02       1.53466e+01       1.91064e+01       3.25522e-04       2.02334e+02
 12.300      2.15953e+02       1.59547e+01       1.95031e+01       3.21362e-04       1.99176e+02
 12.400      2.15379e+02       1.66043e+01       1.98707e+01       3.17174e-04       1.96058e+02
 12.500      2.14858e+02       1.72902e+01       2.02034e+01       3.12953e-04       1.92980e+02
 12.600      2.14397e+02       1.80072e+01       2.04961e+01       3.08694e-04       1.89945e+02
 12.700      2.14000e+02       1.87504e+01       2.07437e+01       3.04391e-04       1.86951e+02
 12.800      2.13675e+02       1.95148e+01       2.09410e+01       3.00042e-04       1.84000e+02
 12.900      2.13428e+02       2.02954e+01       2.10827e+01       2.95642e-04       1.81092e+02
 13.000      2.13265e+02       2.10872e+01       2.11638e+01       2.91188e-04       1.78228e+02
 13.100      2.13192e+02       2.18852e+01       2.11791e+01       2.86678e-04       1.75407e+02
 13.200      2.13214e+02       2.26835e+01       2.11240e+01       2.82112e-04       1.72631e+02
 13.300      2.13319e+02       2.34706e+01       2.09976e+01       2.77510e-04       1.69898e+02
 13.400      2.13492e+02       2.42327e+01       2.08003e+01       2.72898e-04       1.67210e+02
 13.500      2.13717e+02       2.49562e+01       2.05327e+01       2.68300e-04       1.64566e+02
 13.600      2.13978e+02       2.56273e+01       2.01952e+01       2.63739e-04       1.61967e+02
 13.700      2.14260e+02       2.62323e+01       1.97883e+01       2.59237e-04       1.59411e+02
 13.800      2.14546e+02       2.67574e+01       1.93126e+01       2.54813e-04       1.56900e+02
 13.900      2.14820e+02       2.71891e+01       1.87684e+01       2.50485e-04       1.54433e+02
 14.000      2.15068e+02       2.75135e+01       1.81562e+01       2.46271e-04       1.52009e+02
 14.100      2.15272e+02       2.77170e+01       1.74766e+01       2.42185e-04       1.49630e+02
 14.200      2.15422e+02       2.77918e+01       1.67339e+01       2.38236e-04       1.47293e+02
 14.300      2.15522e+02       2.77451e+01       1.59417e+01       2.34414e-04       1.44996e+02
 14.400      2.15575e+02       2.75866e+01       1.51155e+01       2.30707e-04       1.42738e+02
 14.500      2.15585e+02       2.73257e+01       1.42703e+01       2.27105e-04       1.40517e+02
 14.600      2.15559e+02       2.69720e+01       1.34216e+01       2.23596e-04       1.38329e+02
 14.700      2.15500e+02       2.65351e+01       1.25845e+01       2.20172e-04       1.36173e+02
 14.800      2.15413e+02       2.60245e+01       1.17744e+01       2.16823e-04       1.34047e+02
 14.900      2.15302e+02       2.54498e+01       1.10064e+01       2.13540e-04       1.31950e+02
 15.000      2.15172e+02       2.48206e+01       1.02959e+01       2.10315e-04       1.29879e+02
 15.100      2.15028e+02       2.41463e+01       9.65804e+00       2.07141e-04       1.27833e+02
 15.200      2.14875e+02       2.34366e+01       9.10820e+00       2.04009e-04       1.25810e+02
 15.300      2.14716e+02       2.27008e+01       8.66067e+00       2.00913e-04       1.23810e+02
 15.400      2.14554e+02       2.19448e+01       8.31596e+00       1.97852e-04       1.21832e+02
 15.500      2.14392e+02       2.11716e+01       8.06380e+00       1.94826e-04       1.19877e+02
 15.600      2.14230e+02       2.03844e+01       7.89363e+00       1.91836e-04       1.17949e+02
 15.700      2.14068e+02       1.95863e+01       7.79491e+00       1.88885e-04       1.16046e+02
 15.800      2.13910e+02       1.87802e+01       7.75707e+00       1.85973e-04       1.14173e+02
 15.900      2.13755e+02       1.79693e+01       7.76957e+00       1.83100e-04       1.12328e+02
 16.000      2.13605e+02       1.71566e+01       7.82185e+00       1.80269e-04       1.10513e+02
 16.100      2.13461e+02       1.63452e+01       7.90336e+00       1.77480e-04       1.08730e+02
 16.200      2.13325e+02       1.55382e+01       8.00354e+00       1.74733e-04       1.06979e+02
 16.300      2.13198e+02       1.47387e+01       8.11184e+00       1.72030e-04       1.05261e+02
 16.400      2.13080e+02       1.39497e+01       8.21771e+00       1.69371e-04       1.03577e+02
 16.500      2.12974e+02       1.31743e+01       8.31060e+00       1.66756e-04       1.01927e+02
 16.600      2.12880e+02       1.24155e+01       8.37995e+00       1.64186e-04       1.00312e+02
 16.700      2.12800e+02       1.16762e+01       8.41631e+00       1.61662e-04       9.87327e+01
 16.800      2.12733e+02       1.09571e+01       8.41833e+00       1.59181e-04       9.71873e+01
 16.900      2.12680e+02       1.02581e+01       8.38821e+00       1.56743e-04       9.56744e+01
 17.000      2.12638e+02       9.57891e+00       8.32820e+00       1.54345e-04       9.41925e+01
 17.100      2.12609e+02       8.91942e+00       8.24053e+00       1.51986e-04       9.27400e+01
 17.200      2.12592e+02       8.27945e+00       8.12743e+00       1.49663e-04       9.13155e+01
 17.300      2.12586e+02       7.65887e+00       7.99114e+00       1.47376e-04       8.99176e+01
 17.400      2.12590e+02       7.05746e+00       7.83388e+00       1.45124e-04       8.85450e+01
 17.500      2.12605e+02       6.47508e+00       7.65790e+00       1.42903e-04       8.71963e+01
 17.600      2.12629e+02       5.91155e+00       7.46542e+00       1.40714e-04       8.58705e+01
 17.700      2.12663e+02       5.36670e+00       7.25869e+00       1.38556e-04       8.45663e+01
 17.800      2.12705e+02       4.84039e+00       7.03994e+00       1.36425e-04       8.32827e+01
 17.900      2.12756e+02       4.33241e+00       6.81139e+00       1.34323e-04       8.20186e+01
 18.000      2.12814e+02       3.84262e+00       6.57528e+00       1.32247e-04       8.07731e+01
 18.100      2.12879e+02       3.37083e+00       6.33385e+00       1.30196e-04       7.95450e+01
 18.200      2.12952e+02       2.91689e+00       6.08933e+00       1.28170e-04       7.83336e+01
 18.300      2.13030e+02       2.48063e+00       5.84397e+00       1.26167e-04       7.71381e+01
 18.400      2.13115e+02       2.06187e+00       5.59997e+00       1.24187e-04       7.59574e+01
 18.500      2.13205e+02       1.66044e+00       5.35959e+00       1.22228e-04       7.47910e+01
 18.600      2.13299e+02       1.27619e+00       5.12505e+00       1.20290e-04       7.36380e+01
 18.700      2.13398e+02       9.08931e-01       4.89859e+00       1.18373e-04       7.24977e+01
 18.800      2.13501e+02       5.58511e-01       4.68246e+00       1.16475e-04       7.13696e+01
 18.900      2.13608e+02       2.24746e-01       4.47886e+00       1.14595e-04       7.02529e+01
 19.000      2.13717e+02      -9.25634e-02       4.28981e+00       1.12734e-04       6.91472e+01
 19.100      2.13829e+02      -3.93933e-01       4.11539e+00       1.10891e-04       6.80527e+01
 19.200      2.13943e+02      -6.80029e-01       3.95474e+00       1.09069e-04       6.69700e+01
 19.300      2.14060e+02      -9.51511e-01       3.80701e+00       1.07267e-04       6.58997e+01
 19.400      2.14180e+02      -1.20906e+00       3.67134e+00       1.05487e-04       6.48422e+01
 19.500      2.14301e+02      -1.45333e+00       3.54688e+00       1.03729e-04       6.37981e+01
 19.600      2.14424e+02      -1.68499e+00       3.43278e+00       1.01995e-04       6.27676e+01
 19.700      2.14549e+02      -1.90471e+00       3.32817e+00       1.00286e-04       6.17514e+01
 19.800      2.14675e+02      -2.11315e+00       3.23221e+00       9.86006e-05       6.07497e+01
 19.900      2.14803e+02      -2.31098e+00       3.14403e+00       9.69410e-05       5.97628e+01
 20.000      2.14933e+02      -2.49887e+00       3.06278e+00       9.53074e-05       5.87910e+01
 20.100      2.15063e+02      -2.67748e+00       2.98761e+00       9.37003e-05       5.78347e+01
 20.200      2.15194e+02      -2.84748e+00       2.91766e+00       9.21200e-05       5.68940e+01
 20.300      2.15326e+02      -3.00953e+00       2.85208e+00       9.05671e-05       5.59692e+01
