# Data Source: NASA MERRA (version 1)
# Model Time = 2010-03-27 18:00:00
# Location = [  39.7393, -104.9900 ]
# Fields = [ Z(km), T(K), U(m/s), V(m/s), R(g/cm3), P(mbar) ]
# Ground Height = 1.589
  0.000      2.87868e+02       1.10561e+00      -7.91099e+00       1.23255e-03       1.01831e+03
  0.100      2.87225e+02       1.08689e+00      -7.96593e+00       1.22072e-03       1.00628e+03
  0.200      2.86591e+02       1.07154e+00      -8.01086e+00       1.20897e-03       9.94397e+02
  0.300      2.85949e+02       1.05317e+00      -8.06477e+00       1.19737e-03       9.82646e+02
  0.400      2.85280e+02       1.02556e+00      -8.14578e+00       1.18596e-03       9.71009e+02
  0.500      2.84591e+02       9.91961e-01      -8.22437e+00       1.17471e-03       9.59477e+02
  0.600      2.83917e+02       9.69878e-01      -8.19958e+00       1.16348e-03       9.48051e+02
  0.700      2.83284e+02       9.73309e-01      -8.04539e+00       1.15216e-03       9.36733e+02
  0.800      2.82672e+02       1.00494e+00      -7.93159e+00       1.14083e-03       9.25525e+02
  0.900      2.82062e+02       1.06073e+00      -7.99973e+00       1.12959e-03       9.14425e+02
  1.000      2.81452e+02       1.11343e+00      -8.12768e+00       1.11843e-03       9.03436e+02
  1.100      2.80851e+02       1.13243e+00      -8.13327e+00       1.10733e-03       8.92557e+02
  1.200      2.80249e+02       1.12324e+00      -8.00662e+00       1.09632e-03       8.81789e+02
  1.300      2.79634e+02       1.11353e+00      -7.84363e+00       1.08545e-03       8.71128e+02
  1.400      2.78990e+02       1.13132e+00      -7.74175e+00       1.07477e-03       8.60572e+02
  1.500      2.78303e+02       1.20459e+00      -7.79841e+00       1.06434e-03       8.50120e+02
  1.600      2.77563e+02       1.35228e+00      -8.08377e+00       1.05418e-03       8.39768e+02
  1.700      2.76778e+02       1.55578e+00      -8.55499e+00       1.04427e-03       8.29516e+02
  1.800      2.75963e+02       1.78678e+00      -9.14000e+00       1.03453e-03       8.19360e+02
  1.900      2.75132e+02       2.01696e+00      -9.76674e+00       1.02491e-03       8.09298e+02
  2.000      2.74298e+02       2.21801e+00      -1.03631e+01       1.01536e-03       7.99329e+02
  2.100      2.73472e+02       2.37226e+00      -1.08763e+01       1.00584e-03       7.89451e+02
  2.200      2.72653e+02       2.49691e+00      -1.13161e+01       9.96358e-04       7.79665e+02
  2.300      2.71838e+02       2.61629e+00      -1.17051e+01       9.86919e-04       7.69970e+02
  2.400      2.71023e+02       2.75469e+00      -1.20658e+01       9.77541e-04       7.60368e+02
  2.500      2.70205e+02       2.93644e+00      -1.24210e+01       9.68238e-04       7.50858e+02
  2.600      2.69381e+02       3.17983e+00      -1.27909e+01       9.59020e-04       7.41441e+02
  2.700      2.68549e+02       3.47160e+00      -1.31841e+01       9.49894e-04       7.32116e+02
  2.800      2.67706e+02       3.78812e+00      -1.36056e+01       9.40862e-04       7.22880e+02
  2.900      2.66852e+02       4.10578e+00      -1.40599e+01       9.31928e-04       7.13731e+02
  3.000      2.65984e+02       4.40096e+00      -1.45520e+01       9.23096e-04       7.04668e+02
  3.100      2.65102e+02       4.65024e+00      -1.50861e+01       9.14368e-04       6.95689e+02
  3.200      2.64209e+02       4.83554e+00      -1.56510e+01       9.05726e-04       6.86794e+02
  3.300      2.63317e+02       4.94431e+00      -1.62197e+01       8.97134e-04       6.77982e+02
  3.400      2.62437e+02       4.96433e+00      -1.67646e+01       8.88555e-04       6.69254e+02
  3.500      2.61580e+02       4.88331e+00      -1.72578e+01       8.79952e-04       6.60610e+02
  3.600      2.60758e+02       4.68902e+00      -1.76716e+01       8.71290e-04       6.52051e+02
  3.700      2.59979e+02       4.37291e+00      -1.79823e+01       8.62540e-04       6.43576e+02
  3.800      2.59243e+02       3.95799e+00      -1.81997e+01       8.53713e-04       6.35187e+02
  3.900      2.58542e+02       3.48308e+00      -1.83510e+01       8.44838e-04       6.26882e+02
  4.000      2.57866e+02       2.98713e+00      -1.84632e+01       8.35947e-04       6.18664e+02
  4.100      2.57208e+02       2.50909e+00      -1.85635e+01       8.27067e-04       6.10531e+02
  4.200      2.56561e+02       2.08790e+00      -1.86789e+01       8.18228e-04       6.02485e+02
  4.300      2.55915e+02       1.75929e+00      -1.88343e+01       8.09455e-04       5.94526e+02
  4.400      2.55269e+02       1.52436e+00      -1.90286e+01       8.00756e-04       5.86653e+02
  4.500      2.54623e+02       1.36320e+00      -1.92453e+01       7.92131e-04       5.78865e+02
  4.600      2.53977e+02       1.25558e+00      -1.94677e+01       7.83578e-04       5.71161e+02
  4.700      2.53331e+02       1.18128e+00      -1.96791e+01       7.75098e-04       5.63541e+02
  4.800      2.52684e+02       1.12008e+00      -1.98626e+01       7.66687e-04       5.56004e+02
  4.900      2.52038e+02       1.05180e+00      -2.00016e+01       7.58346e-04       5.48549e+02
  5.000      2.51391e+02       9.63788e-01      -2.00836e+01       7.50076e-04       5.41175e+02
  5.100      2.50742e+02       8.60499e-01      -2.01057e+01       7.41882e-04       5.33881e+02
  5.200      2.50088e+02       7.48710e-01      -2.00664e+01       7.33770e-04       5.26666e+02
  5.300      2.49427e+02       6.35204e-01      -1.99643e+01       7.25747e-04       5.19530e+02
  5.400      2.48756e+02       5.26763e-01      -1.97977e+01       7.17817e-04       5.12471e+02
  5.500      2.48073e+02       4.30170e-01      -1.95653e+01       7.09986e-04       5.05488e+02
  5.600      2.47375e+02       3.52193e-01      -1.92654e+01       7.02260e-04       4.98581e+02
  5.700      2.46662e+02       2.96948e-01      -1.88983e+01       6.94640e-04       4.91749e+02
  5.800      2.45934e+02       2.62735e-01      -1.84679e+01       6.87120e-04       4.84991e+02
  5.900      2.45195e+02       2.47084e-01      -1.79785e+01       6.79692e-04       4.78307e+02
  6.000      2.44446e+02       2.47525e-01      -1.74347e+01       6.72350e-04       4.71695e+02
  6.100      2.43690e+02       2.61586e-01      -1.68409e+01       6.65087e-04       4.65155e+02
  6.200      2.42927e+02       2.86797e-01      -1.62014e+01       6.57896e-04       4.58686e+02
  6.300      2.42161e+02       3.20688e-01      -1.55207e+01       6.50772e-04       4.52288e+02
  6.400      2.41393e+02       3.60728e-01      -1.48035e+01       6.43707e-04       4.45959e+02
  6.500      2.40623e+02       4.03620e-01      -1.40600e+01       6.36704e-04       4.39699e+02
  6.600      2.39849e+02       4.45534e-01      -1.33037e+01       6.29765e-04       4.33508e+02
  6.700      2.39068e+02       4.82630e-01      -1.25484e+01       6.22894e-04       4.27384e+02
  6.800      2.38280e+02       5.11068e-01      -1.18076e+01       6.16097e-04       4.21327e+02
  6.900      2.37483e+02       5.27009e-01      -1.10951e+01       6.09376e-04       4.15335e+02
  7.000      2.36673e+02       5.26611e-01      -1.04247e+01       6.02735e-04       4.09409e+02
  7.100      2.35850e+02       5.06036e-01      -9.80989e+00       5.96179e-04       4.03547e+02
  7.200      2.35012e+02       4.61585e-01      -9.26418e+00       5.89709e-04       3.97749e+02
  7.300      2.34157e+02       3.95467e-01      -8.78851e+00       5.83327e-04       3.92014e+02
  7.400      2.33288e+02       3.17777e-01      -8.36726e+00       5.77027e-04       3.86341e+02
  7.500      2.32407e+02       2.39160e-01      -7.98366e+00       5.70803e-04       3.80730e+02
  7.600      2.31514e+02       1.70257e-01      -7.62094e+00       5.64651e-04       3.75180e+02
  7.700      2.30612e+02       1.21715e-01      -7.26232e+00       5.58566e-04       3.69690e+02
  7.800      2.29701e+02       1.04176e-01      -6.89101e+00       5.52543e-04       3.64260e+02
  7.900      2.28784e+02       1.28285e-01      -6.49026e+00       5.46577e-04       3.58889e+02
  8.000      2.27863e+02       2.04686e-01      -6.04329e+00       5.40664e-04       3.53576e+02
  8.100      2.26938e+02       3.43870e-01      -5.53356e+00       5.34799e-04       3.48321e+02
  8.200      2.26013e+02       5.46201e-01      -4.96065e+00       5.28974e-04       3.43123e+02
  8.300      2.25096e+02       7.95822e-01      -4.34989e+00       5.23174e-04       3.37983e+02
  8.400      2.24192e+02       1.07540e+00      -3.72899e+00       5.17384e-04       3.32901e+02
  8.500      2.23309e+02       1.36763e+00      -3.12561e+00       5.11589e-04       3.27875e+02
  8.600      2.22453e+02       1.65518e+00      -2.56743e+00       5.05776e-04       3.22908e+02
  8.700      2.21631e+02       1.92071e+00      -2.08215e+00       4.99931e-04       3.17997e+02
  8.800      2.20851e+02       2.14693e+00      -1.69743e+00       4.94041e-04       3.13144e+02
  8.900      2.20119e+02       2.31649e+00      -1.44096e+00       4.88093e-04       3.08348e+02
  9.000      2.19441e+02       2.41207e+00      -1.34042e+00       4.82076e-04       3.03610e+02
  9.100      2.18826e+02       2.41644e+00      -1.42337e+00       4.75977e-04       2.98928e+02
  9.200      2.18276e+02       2.32349e+00      -1.70018e+00       4.69794e-04       2.94303e+02
  9.300      2.17792e+02       2.15006e+00      -2.14588e+00       4.63533e-04       2.89738e+02
  9.400      2.17373e+02       1.91576e+00      -2.73117e+00       4.57204e-04       2.85232e+02
  9.500      2.17018e+02       1.64022e+00      -3.42679e+00       4.50818e-04       2.80787e+02
  9.600      2.16724e+02       1.34307e+00      -4.20343e+00       4.44382e-04       2.76405e+02
  9.700      2.16493e+02       1.04393e+00      -5.03180e+00       4.37907e-04       2.72086e+02
  9.800      2.16321e+02       7.62436e-01      -5.88262e+00       4.31401e-04       2.67832e+02
  9.900      2.16209e+02       5.18209e-01      -6.72659e+00       4.24873e-04       2.63642e+02
 10.000      2.16155e+02       3.30874e-01      -7.53443e+00       4.18331e-04       2.59518e+02
 10.100      2.16158e+02       2.20059e-01      -8.27685e+00       4.11785e-04       2.55460e+02
 10.200      2.16217e+02       2.05392e-01      -8.92455e+00       4.05241e-04       2.51469e+02
 10.300      2.16330e+02       3.05184e-01      -9.44995e+00       3.98708e-04       2.47545e+02
 10.400      2.16494e+02       5.20077e-01      -9.84819e+00       3.92198e-04       2.43688e+02
 10.500      2.16702e+02       8.38076e-01      -1.01307e+01       3.85725e-04       2.39895e+02
 10.600      2.16946e+02       1.24691e+00      -1.03093e+01       3.79302e-04       2.36167e+02
 10.700      2.17221e+02       1.73429e+00      -1.03958e+01       3.72942e-04       2.32501e+02
 10.800      2.17520e+02       2.28797e+00      -1.04018e+01       3.66656e-04       2.28897e+02
 10.900      2.17836e+02       2.89565e+00      -1.03394e+01       3.60456e-04       2.25353e+02
 11.000      2.18162e+02       3.54508e+00      -1.02201e+01       3.54350e-04       2.21868e+02
 11.100      2.18492e+02       4.22398e+00      -1.00559e+01       3.48349e-04       2.18440e+02
 11.200      2.18819e+02       4.92006e+00      -9.85844e+00       3.42461e-04       2.15070e+02
 11.300      2.19137e+02       5.62108e+00      -9.63959e+00       3.36694e-04       2.11754e+02
 11.400      2.19438e+02       6.31473e+00      -9.41111e+00       3.31054e-04       2.08494e+02
 11.500      2.19716e+02       6.98877e+00      -9.18479e+00       3.25548e-04       2.05286e+02
 11.600      2.19965e+02       7.63092e+00      -8.97242e+00       3.20182e-04       2.02131e+02
 11.700      2.20178e+02       8.22896e+00      -8.78572e+00       3.14961e-04       1.99028e+02
 11.800      2.20351e+02       8.77606e+00      -8.63130e+00       3.09885e-04       1.95974e+02
 11.900      2.20487e+02       9.27404e+00      -8.50748e+00       3.04947e-04       1.92970e+02
 12.000      2.20588e+02       9.72554e+00      -8.41181e+00       3.00138e-04       1.90014e+02
 12.100      2.20656e+02       1.01332e+01      -8.34185e+00       2.95452e-04       1.87105e+02
 12.200      2.20694e+02       1.04996e+01      -8.29514e+00       2.90881e-04       1.84242e+02
 12.300      2.20704e+02       1.08274e+01      -8.26926e+00       2.86419e-04       1.81424e+02
 12.400      2.20690e+02       1.11193e+01      -8.26175e+00       2.82058e-04       1.78650e+02
 12.500      2.20652e+02       1.13778e+01      -8.27017e+00       2.77794e-04       1.75919e+02
 12.600      2.20594e+02       1.16057e+01      -8.29206e+00       2.73620e-04       1.73230e+02
 12.700      2.20518e+02       1.18054e+01      -8.32500e+00       2.69531e-04       1.70583e+02
 12.800      2.20427e+02       1.19797e+01      -8.36653e+00       2.65522e-04       1.67976e+02
 12.900      2.20323e+02       1.21312e+01      -8.41420e+00       2.61587e-04       1.65409e+02
 13.000      2.20209e+02       1.22626e+01      -8.46558e+00       2.57722e-04       1.62880e+02
 13.100      2.20086e+02       1.23763e+01      -8.51821e+00       2.53923e-04       1.60390e+02
 13.200      2.19959e+02       1.24752e+01      -8.56966e+00       2.50184e-04       1.57937e+02
 13.300      2.19827e+02       1.25618e+01      -8.61747e+00       2.46502e-04       1.55520e+02
 13.400      2.19696e+02       1.26387e+01      -8.65920e+00       2.42874e-04       1.53138e+02
 13.500      2.19566e+02       1.27086e+01      -8.69241e+00       2.39294e-04       1.50792e+02
 13.600      2.19440e+02       1.27739e+01      -8.71479e+00       2.35760e-04       1.48480e+02
 13.700      2.19320e+02       1.28357e+01      -8.72565e+00       2.32271e-04       1.46202e+02
 13.800      2.19204e+02       1.28938e+01      -8.72538e+00       2.28825e-04       1.43958e+02
 13.900      2.19093e+02       1.29481e+01      -8.71438e+00       2.25424e-04       1.41746e+02
 14.000      2.18986e+02       1.29984e+01      -8.69305e+00       2.22067e-04       1.39567e+02
 14.100      2.18883e+02       1.30448e+01      -8.66181e+00       2.18753e-04       1.37420e+02
 14.200      2.18785e+02       1.30871e+01      -8.62105e+00       2.15483e-04       1.35305e+02
 14.300      2.18690e+02       1.31251e+01      -8.57117e+00       2.12257e-04       1.33221e+02
 14.400      2.18598e+02       1.31587e+01      -8.51259e+00       2.09074e-04       1.31168e+02
 14.500      2.18510e+02       1.31879e+01      -8.44570e+00       2.05933e-04       1.29145e+02
 14.600      2.18425e+02       1.32126e+01      -8.37091e+00       2.02835e-04       1.27153e+02
 14.700      2.18342e+02       1.32325e+01      -8.28863e+00       1.99780e-04       1.25191e+02
 14.800      2.18263e+02       1.32477e+01      -8.19925e+00       1.96767e-04       1.23258e+02
 14.900      2.18186e+02       1.32579e+01      -8.10318e+00       1.93796e-04       1.21354e+02
 15.000      2.18111e+02       1.32632e+01      -8.00083e+00       1.90866e-04       1.19478e+02
 15.100      2.18038e+02       1.32633e+01      -7.89259e+00       1.87978e-04       1.17631e+02
 15.200      2.17967e+02       1.32582e+01      -7.77888e+00       1.85132e-04       1.15812e+02
 15.300      2.17898e+02       1.32478e+01      -7.66009e+00       1.82325e-04       1.14020e+02
 15.400      2.17829e+02       1.32319e+01      -7.53664e+00       1.79560e-04       1.12256e+02
 15.500      2.17763e+02       1.32104e+01      -7.40892e+00       1.76834e-04       1.10518e+02
 15.600      2.17697e+02       1.31833e+01      -7.27733e+00       1.74149e-04       1.08806e+02
 15.700      2.17632e+02       1.31503e+01      -7.14229e+00       1.71503e-04       1.07121e+02
 15.800      2.17567e+02       1.31115e+01      -7.00420e+00       1.68896e-04       1.05461e+02
 15.900      2.17503e+02       1.30667e+01      -6.86346e+00       1.66328e-04       1.03827e+02
 16.000      2.17438e+02       1.30157e+01      -6.72047e+00       1.63798e-04       1.02218e+02
 16.100      2.17374e+02       1.29585e+01      -6.57563e+00       1.61307e-04       1.00633e+02
 16.200      2.17309e+02       1.28950e+01      -6.42934e+00       1.58853e-04       9.90733e+01
 16.300      2.17244e+02       1.28253e+01      -6.28174e+00       1.56437e-04       9.75371e+01
 16.400      2.17178e+02       1.27497e+01      -6.13277e+00       1.54058e-04       9.60244e+01
 16.500      2.17110e+02       1.26684e+01      -5.98237e+00       1.51715e-04       9.45348e+01
 16.600      2.17041e+02       1.25818e+01      -5.83047e+00       1.49409e-04       9.30679e+01
 16.700      2.16970e+02       1.24901e+01      -5.67703e+00       1.47138e-04       9.16233e+01
 16.800      2.16896e+02       1.23937e+01      -5.52198e+00       1.44902e-04       9.02006e+01
 16.900      2.16820e+02       1.22927e+01      -5.36526e+00       1.42702e-04       8.87994e+01
 17.000      2.16740e+02       1.21876e+01      -5.20682e+00       1.40535e-04       8.74193e+01
 17.100      2.16658e+02       1.20785e+01      -5.04658e+00       1.38403e-04       8.60601e+01
 17.200      2.16571e+02       1.19659e+01      -4.88450e+00       1.36304e-04       8.47212e+01
 17.300      2.16480e+02       1.18499e+01      -4.72052e+00       1.34239e-04       8.34025e+01
 17.400      2.16385e+02       1.17308e+01      -4.55456e+00       1.32206e-04       8.21035e+01
 17.500      2.16285e+02       1.16090e+01      -4.38658e+00       1.30206e-04       8.08238e+01
 17.600      2.16180e+02       1.14848e+01      -4.21651e+00       1.28238e-04       7.95632e+01
 17.700      2.16069e+02       1.13583e+01      -4.04430e+00       1.26301e-04       7.83214e+01
 17.800      2.15952e+02       1.12300e+01      -3.86989e+00       1.24395e-04       7.70980e+01
 17.900      2.15829e+02       1.11000e+01      -3.69321e+00       1.22520e-04       7.58927e+01
 18.000      2.15700e+02       1.09688e+01      -3.51420e+00       1.20676e-04       7.47053e+01
 18.100      2.15563e+02       1.08365e+01      -3.33281e+00       1.18861e-04       7.35354e+01
 18.200      2.15419e+02       1.07034e+01      -3.14898e+00       1.17076e-04       7.23826e+01
 18.300      2.15268e+02       1.05700e+01      -2.96265e+00       1.15320e-04       7.12469e+01
 18.400      2.15108e+02       1.04363e+01      -2.77375e+00       1.13593e-04       7.01278e+01
 18.500      2.14941e+02       1.03028e+01      -2.58235e+00       1.11894e-04       6.90252e+01
 18.600      2.14766e+02       1.01699e+01      -2.38913e+00       1.10223e-04       6.79388e+01
 18.700      2.14584e+02       1.00382e+01      -2.19505e+00       1.08578e-04       6.68686e+01
 18.800      2.14397e+02       9.90818e+00      -2.00102e+00       1.06960e-04       6.58144e+01
 18.900      2.14206e+02       9.78034e+00      -1.80797e+00       1.05366e-04       6.47760e+01
 19.000      2.14012e+02       9.65524e+00      -1.61683e+00       1.03797e-04       6.37535e+01
 19.100      2.13815e+02       9.53339e+00      -1.42854e+00       1.02252e-04       6.27465e+01
 19.200      2.13617e+02       9.41534e+00      -1.24403e+00       1.00729e-04       6.17551e+01
 19.300      2.13419e+02       9.30160e+00      -1.06422e+00       9.92291e-05       6.07790e+01
 19.400      2.13222e+02       9.19270e+00      -8.90046e-01       9.77506e-05       5.98181e+01
 19.500      2.13026e+02       9.08917e+00      -7.22435e-01       9.62932e-05       5.88723e+01
 19.600      2.12834e+02       8.99154e+00      -5.62321e-01       9.48562e-05       5.79414e+01
 19.700      2.12646e+02       8.90033e+00      -4.10631e-01       9.34389e-05       5.70252e+01
 19.800      2.12463e+02       8.81608e+00      -2.68300e-01       9.20410e-05       5.61237e+01
 19.900      2.12286e+02       8.73931e+00      -1.36253e-01       9.06617e-05       5.52366e+01
 20.000      2.12116e+02       8.67054e+00      -1.54208e-02       8.93006e-05       5.43638e+01
 20.100      2.11955e+02       8.61031e+00       9.32649e-02       8.79572e-05       5.35052e+01
 20.200      2.11802e+02       8.55913e+00       1.88874e-01       8.66309e-05       5.26606e+01
 20.300      2.11660e+02       8.51755e+00       2.70476e-01       8.53215e-05       5.18298e+01
