# Data Source: NASA GEOS5 Near-Real-Time
# Model Time = 2011-06-09 18:00:00
# Location = [  39.1026,  -84.5123 ]
# Fields = [ Z(km), T(K), U(m/s), V(m/s), R(g/cm3), P(mbar) ]
# Ground Height = 0.165
  0.000      3.05401e+02       1.27700e+00      -1.19577e+00       1.15762e-03       1.01465e+03
  0.100      3.04602e+02       1.30055e+00      -1.27918e+00       1.14758e-03       1.00322e+03
  0.200      3.03823e+02       1.34225e+00      -1.36812e+00       1.13756e-03       9.91919e+02
  0.300      3.02995e+02       1.33817e+00      -1.44311e+00       1.12783e-03       9.80757e+02
  0.400      3.02055e+02       1.22797e+00      -1.48511e+00       1.11865e-03       9.69755e+02
  0.500      3.01022e+02       1.04315e+00      -1.48583e+00       1.10992e-03       9.58900e+02
  0.600      3.00004e+02       9.12174e-01      -1.44839e+00       1.10120e-03       9.48147e+02
  0.700      2.99064e+02       9.22171e-01      -1.38157e+00       1.09222e-03       9.37467e+02
  0.800      2.98148e+02       1.04952e+00      -1.30637e+00       1.08318e-03       9.26864e+02
  0.900      2.97193e+02       1.25485e+00      -1.24144e+00       1.07434e-03       9.16348e+02
  1.000      2.96189e+02       1.50273e+00      -1.17668e+00       1.06571e-03       9.05921e+02
  1.100      2.95148e+02       1.76049e+00      -1.09064e+00       1.05727e-03       8.95583e+02
  1.200      2.94100e+02       2.03164e+00      -9.85124e-01       1.04889e-03       8.85332e+02
  1.300      2.93092e+02       2.36335e+00      -8.90042e-01       1.04041e-03       8.75164e+02
  1.400      2.92164e+02       2.79266e+00      -8.31344e-01       1.03168e-03       8.65075e+02
  1.500      2.91328e+02       3.30314e+00      -8.11290e-01       1.02267e-03       8.55069e+02
  1.600      2.90585e+02       3.86390e+00      -8.25033e-01       1.01340e-03       8.45152e+02
  1.700      2.89930e+02       4.43269e+00      -8.46164e-01       1.00388e-03       8.35326e+02
  1.800      2.89351e+02       4.95567e+00      -8.26151e-01       9.94162e-04       8.25589e+02
  1.900      2.88830e+02       5.38967e+00      -7.23607e-01       9.84319e-04       8.15942e+02
  2.000      2.88330e+02       5.74545e+00      -5.36325e-01       9.74479e-04       8.06388e+02
  2.100      2.87811e+02       6.04985e+00      -2.73837e-01       9.64787e-04       7.96930e+02
  2.200      2.87245e+02       6.32411e+00       5.45024e-02       9.55331e-04       7.87568e+02
  2.300      2.86630e+02       6.58068e+00       4.39619e-01       9.46111e-04       7.78298e+02
  2.400      2.85965e+02       6.83128e+00       8.71554e-01       9.37121e-04       7.69115e+02
  2.500      2.85252e+02       7.08886e+00       1.32869e+00       9.28353e-04       7.60017e+02
  2.600      2.84490e+02       7.36721e+00       1.78139e+00       9.19801e-04       7.51005e+02
  2.700      2.83685e+02       7.67748e+00       2.19861e+00       9.11445e-04       7.42077e+02
  2.800      2.82862e+02       8.01607e+00       2.54223e+00       9.03198e-04       7.33230e+02
  2.900      2.82055e+02       8.37425e+00       2.77171e+00       8.94950e-04       7.24461e+02
  3.000      2.81289e+02       8.74011e+00       2.86143e+00       8.86621e-04       7.15769e+02
  3.100      2.80563e+02       9.09127e+00       2.83542e+00       8.78220e-04       7.07157e+02
  3.200      2.79872e+02       9.40317e+00       2.72801e+00       8.69772e-04       6.98629e+02
  3.300      2.79209e+02       9.65899e+00       2.56259e+00       8.61304e-04       6.90187e+02
  3.400      2.78566e+02       9.86106e+00       2.33536e+00       8.52835e-04       6.81829e+02
  3.500      2.77938e+02       1.00147e+01       2.03838e+00       8.44385e-04       6.73552e+02
  3.600      2.77319e+02       1.01253e+01       1.67049e+00       8.35970e-04       6.65354e+02
  3.700      2.76709e+02       1.01991e+01       1.24677e+00       8.27590e-04       6.57235e+02
  3.800      2.76108e+02       1.02423e+01       7.84664e-01       8.19246e-04       6.49195e+02
  3.900      2.75515e+02       1.02607e+01       2.96515e-01       8.10940e-04       6.41233e+02
  4.000      2.74931e+02       1.02599e+01      -2.20430e-01       8.02675e-04       6.33352e+02
  4.100      2.74354e+02       1.02452e+01      -7.71717e-01       7.94457e-04       6.25553e+02
  4.200      2.73784e+02       1.02214e+01      -1.35279e+00       7.86289e-04       6.17836e+02
  4.300      2.73219e+02       1.01913e+01      -1.90904e+00       7.78177e-04       6.10199e+02
  4.400      2.72657e+02       1.01574e+01      -2.37035e+00       7.70122e-04       6.02639e+02
  4.500      2.72094e+02       1.01223e+01      -2.67217e+00       7.62128e-04       5.95153e+02
  4.600      2.71529e+02       1.00957e+01      -2.81881e+00       7.54203e-04       5.87742e+02
  4.700      2.70958e+02       1.00919e+01      -2.86116e+00       7.46359e-04       5.80406e+02
  4.800      2.70378e+02       1.01252e+01      -2.85085e+00       7.38607e-04       5.73146e+02
  4.900      2.69786e+02       1.02018e+01      -2.81915e+00       7.30950e-04       5.65964e+02
  5.000      2.69185e+02       1.03121e+01      -2.75846e+00       7.23384e-04       5.58858e+02
  5.100      2.68575e+02       1.04451e+01      -2.65684e+00       7.15902e-04       5.51825e+02
  5.200      2.67958e+02       1.05928e+01      -2.50557e+00       7.08501e-04       5.44865e+02
  5.300      2.67332e+02       1.07772e+01      -2.32526e+00       7.01180e-04       5.37975e+02
  5.400      2.66694e+02       1.10360e+01      -2.15210e+00       6.93948e-04       5.31156e+02
  5.500      2.66043e+02       1.14070e+01      -2.02243e+00       6.86808e-04       5.24407e+02
  5.600      2.65376e+02       1.19077e+01      -1.96084e+00       6.79763e-04       5.17727e+02
  5.700      2.64696e+02       1.24917e+01      -1.95596e+00       6.72807e-04       5.11116e+02
  5.800      2.64005e+02       1.31007e+01      -1.98951e+00       6.65931e-04       5.04572e+02
  5.900      2.63306e+02       1.36767e+01      -2.04324e+00       6.59126e-04       4.98094e+02
  6.000      2.62602e+02       1.41845e+01      -2.10381e+00       6.52385e-04       4.91683e+02
  6.100      2.61894e+02       1.46287e+01      -2.16627e+00       6.45708e-04       4.85337e+02
  6.200      2.61181e+02       1.50173e+01      -2.22647e+00       6.39091e-04       4.79057e+02
  6.300      2.60466e+02       1.53587e+01      -2.28032e+00       6.32533e-04       4.72842e+02
  6.400      2.59746e+02       1.56564e+01      -2.32650e+00       6.26037e-04       4.66692e+02
  6.500      2.59015e+02       1.59075e+01      -2.36777e+00       6.19615e-04       4.60606e+02
  6.600      2.58269e+02       1.61083e+01      -2.40722e+00       6.13280e-04       4.54582e+02
  6.700      2.57500e+02       1.62552e+01      -2.44791e+00       6.07041e-04       4.48618e+02
  6.800      2.56709e+02       1.63397e+01      -2.48440e+00       6.00898e-04       4.42714e+02
  6.900      2.55908e+02       1.63432e+01      -2.49397e+00       5.94822e-04       4.36870e+02
  7.000      2.55110e+02       1.62457e+01      -2.45178e+00       5.88782e-04       4.31086e+02
  7.100      2.54329e+02       1.60276e+01      -2.33302e+00       5.82748e-04       4.25363e+02
  7.200      2.53576e+02       1.56772e+01      -2.11871e+00       5.76697e-04       4.19699e+02
  7.300      2.52847e+02       1.52228e+01      -1.81827e+00       5.70639e-04       4.14096e+02
  7.400      2.52133e+02       1.47049e+01      -1.44967e+00       5.64593e-04       4.08551e+02
  7.500      2.51425e+02       1.41637e+01      -1.03092e+00       5.58578e-04       4.03065e+02
  7.600      2.50717e+02       1.36390e+01      -5.79767e-01       5.52611e-04       3.97636e+02
  7.700      2.50004e+02       1.31513e+01      -1.06347e-01       5.46700e-04       3.92264e+02
  7.800      2.49287e+02       1.26981e+01       3.88159e-01       5.40845e-04       3.86949e+02
  7.900      2.48566e+02       1.22757e+01       9.03086e-01       5.35043e-04       3.81692e+02
  8.000      2.47843e+02       1.18804e+01       1.43777e+00       5.29292e-04       3.76491e+02
  8.100      2.47120e+02       1.15086e+01       1.99135e+00       5.23591e-04       3.71348e+02
  8.200      2.46392e+02       1.11576e+01       2.56072e+00       5.17943e-04       3.66261e+02
  8.300      2.45657e+02       1.08251e+01       3.14158e+00       5.12356e-04       3.61229e+02
  8.400      2.44909e+02       1.05091e+01       3.72958e+00       5.06837e-04       3.56251e+02
  8.500      2.44146e+02       1.02073e+01       4.32039e+00       5.01393e-04       3.51325e+02
  8.600      2.43363e+02       9.91869e+00       4.90819e+00       4.96026e-04       3.46450e+02
  8.700      2.42572e+02       9.65282e+00       5.47342e+00       4.90716e-04       3.41628e+02
  8.800      2.41792e+02       9.42493e+00       5.98901e+00       4.85424e-04       3.36857e+02
  8.900      2.41043e+02       9.25034e+00       6.42784e+00       4.80115e-04       3.32140e+02
  9.000      2.40341e+02       9.14439e+00       6.76276e+00       4.74754e-04       3.27476e+02
  9.100      2.39707e+02       9.12176e+00       6.96769e+00       4.69310e-04       3.22867e+02
  9.200      2.39139e+02       9.17996e+00       7.04471e+00       4.63790e-04       3.18312e+02
  9.300      2.38612e+02       9.29765e+00       7.02692e+00       4.58242e-04       3.13811e+02
  9.400      2.38102e+02       9.45252e+00       6.94897e+00       4.52714e-04       3.09363e+02
  9.500      2.37584e+02       9.62224e+00       6.84552e+00       4.47254e-04       3.04967e+02
  9.600      2.37034e+02       9.78450e+00       6.75124e+00       4.41907e-04       3.00623e+02
  9.700      2.36431e+02       9.91908e+00       6.69513e+00       4.36707e-04       2.96330e+02
  9.800      2.35784e+02       1.00186e+01       6.67108e+00       4.31636e-04       2.92088e+02
  9.900      2.35110e+02       1.00808e+01       6.65955e+00       4.26660e-04       2.87895e+02
 10.000      2.34429e+02       1.01033e+01       6.64099e+00       4.21741e-04       2.83752e+02
 10.100      2.33759e+02       1.00836e+01       6.59582e+00       4.16847e-04       2.79658e+02
 10.200      2.33119e+02       1.00194e+01       6.50448e+00       4.11944e-04       2.75611e+02
 10.300      2.32523e+02       9.91026e+00       6.35148e+00       4.07006e-04       2.71612e+02
 10.400      2.31972e+02       9.76736e+00       6.14722e+00       4.02040e-04       2.67662e+02
 10.500      2.31454e+02       9.60658e+00       5.91222e+00       3.97064e-04       2.63759e+02
 10.600      2.30960e+02       9.44378e+00       5.66703e+00       3.92096e-04       2.59904e+02
 10.700      2.30483e+02       9.29484e+00       5.43221e+00       3.87155e-04       2.56097e+02
 10.800      2.30011e+02       9.17561e+00       5.22830e+00       3.82255e-04       2.52339e+02
 10.900      2.29536e+02       9.10178e+00       5.07550e+00       3.77414e-04       2.48628e+02
 11.000      2.29050e+02       9.08074e+00       4.97766e+00       3.72644e-04       2.44966e+02
 11.100      2.28548e+02       9.10821e+00       4.91572e+00       3.67950e-04       2.41351e+02
 11.200      2.28024e+02       9.17907e+00       4.86891e+00       3.63340e-04       2.37781e+02
 11.300      2.27473e+02       9.28818e+00       4.81643e+00       3.58820e-04       2.34255e+02
 11.400      2.26890e+02       9.43041e+00       4.73753e+00       3.54395e-04       2.30772e+02
 11.500      2.26268e+02       9.60062e+00       4.61143e+00       3.50070e-04       2.27332e+02
 11.600      2.25604e+02       9.79372e+00       4.41728e+00       3.45852e-04       2.23933e+02
 11.700      2.24901e+02       1.00083e+01       4.13065e+00       3.41730e-04       2.20575e+02
 11.800      2.24178e+02       1.02487e+01       3.72117e+00       3.37675e-04       2.17257e+02
 11.900      2.23457e+02       1.05199e+01       3.15794e+00       3.33656e-04       2.13981e+02
 12.000      2.22760e+02       1.08270e+01       2.41004e+00       3.29641e-04       2.10746e+02
 12.100      2.22106e+02       1.11748e+01       1.44659e+00       3.25601e-04       2.07552e+02
 12.200      2.21517e+02       1.15683e+01       2.36689e-01       3.21509e-04       2.04401e+02
 12.300      2.21014e+02       1.20126e+01      -1.25059e+00       3.17338e-04       2.01291e+02
 12.400      2.20617e+02       1.25116e+01      -3.04224e+00       3.13063e-04       1.98222e+02
 12.500      2.20321e+02       1.30534e+01      -5.10299e+00       3.08696e-04       1.95196e+02
 12.600      2.20104e+02       1.36133e+01      -7.34701e+00       3.04274e-04       1.92210e+02
 12.700      2.19942e+02       1.41662e+01      -9.68704e+00       2.99833e-04       1.89265e+02
 12.800      2.19811e+02       1.46871e+01      -1.20359e+01       2.95406e-04       1.86359e+02
 12.900      2.19687e+02       1.51508e+01      -1.43063e+01       2.91026e-04       1.83493e+02
 13.000      2.19547e+02       1.55323e+01      -1.64110e+01       2.86725e-04       1.80666e+02
 13.100      2.19368e+02       1.58065e+01      -1.82627e+01       2.82530e-04       1.77876e+02
 13.200      2.19124e+02       1.59483e+01      -1.97743e+01       2.78469e-04       1.75125e+02
 13.300      2.18798e+02       1.59393e+01      -2.08776e+01       2.74561e-04       1.72411e+02
 13.400      2.18396e+02       1.57915e+01      -2.15927e+01       2.70796e-04       1.69734e+02
 13.500      2.17929e+02       1.55259e+01      -2.19648e+01       2.67155e-04       1.67094e+02
 13.600      2.17409e+02       1.51632e+01      -2.20390e+01       2.63622e-04       1.64491e+02
 13.700      2.16850e+02       1.47244e+01      -2.18608e+01       2.60179e-04       1.61925e+02
 13.800      2.16262e+02       1.42302e+01      -2.14752e+01       2.56811e-04       1.59395e+02
 13.900      2.15658e+02       1.37016e+01      -2.09275e+01       2.53502e-04       1.56902e+02
 14.000      2.15050e+02       1.31592e+01      -2.02629e+01       2.50238e-04       1.54445e+02
 14.100      2.14451e+02       1.26241e+01      -1.95267e+01       2.47005e-04       1.52025e+02
 14.200      2.13872e+02       1.21171e+01      -1.87641e+01       2.43788e-04       1.49640e+02
 14.300      2.13323e+02       1.16528e+01      -1.80098e+01       2.40579e-04       1.47291e+02
 14.400      2.12801e+02       1.12305e+01      -1.72717e+01       2.37378e-04       1.44976e+02
 14.500      2.12305e+02       1.08468e+01      -1.65534e+01       2.34187e-04       1.42693e+02
 14.600      2.11831e+02       1.04986e+01      -1.58586e+01       2.31007e-04       1.40442e+02
 14.700      2.11377e+02       1.01825e+01      -1.51910e+01       2.27840e-04       1.38220e+02
 14.800      2.10940e+02       9.89534e+00      -1.45542e+01       2.24689e-04       1.36026e+02
 14.900      2.10519e+02       9.63374e+00      -1.39518e+01       2.21553e-04       1.33860e+02
 15.000      2.10109e+02       9.39445e+00      -1.33876e+01       2.18435e-04       1.31719e+02
 15.100      2.09709e+02       9.17421e+00      -1.28651e+01       2.15337e-04       1.29604e+02
 15.200      2.09316e+02       8.96974e+00      -1.23881e+01       2.12260e-04       1.27512e+02
 15.300      2.08927e+02       8.77777e+00      -1.19602e+01       2.09205e-04       1.25443e+02
 15.400      2.08540e+02       8.59519e+00      -1.15842e+01       2.06174e-04       1.23397e+02
 15.500      2.08155e+02       8.42013e+00      -1.12575e+01       2.03167e-04       1.21373e+02
 15.600      2.07776e+02       8.25132e+00      -1.09744e+01       2.00187e-04       1.19375e+02
 15.700      2.07403e+02       8.08748e+00      -1.07295e+01       1.97233e-04       1.17402e+02
 15.800      2.07039e+02       7.92733e+00      -1.05171e+01       1.94307e-04       1.15458e+02
 15.900      2.06687e+02       7.76962e+00      -1.03317e+01       1.91410e-04       1.13542e+02
 16.000      2.06347e+02       7.61306e+00      -1.01679e+01       1.88542e-04       1.11658e+02
 16.100      2.06023e+02       7.45638e+00      -1.00200e+01       1.85704e-04       1.09804e+02
 16.200      2.05717e+02       7.29831e+00      -9.88253e+00       1.82896e-04       1.07983e+02
 16.300      2.05430e+02       7.13757e+00      -9.74994e+00       1.80120e-04       1.06196e+02
 16.400      2.05164e+02       6.97289e+00      -9.61668e+00       1.77376e-04       1.04443e+02
 16.500      2.04923e+02       6.80300e+00      -9.47722e+00       1.74664e-04       1.02725e+02
 16.600      2.04707e+02       6.62663e+00      -9.32603e+00       1.71985e-04       1.01042e+02
 16.700      2.04519e+02       6.44251e+00      -9.15761e+00       1.69338e-04       9.93965e+01
 16.800      2.04360e+02       6.24996e+00      -8.96922e+00       1.66725e-04       9.77866e+01
 16.900      2.04230e+02       6.04911e+00      -8.76195e+00       1.64144e-04       9.62110e+01
 17.000      2.04127e+02       5.84015e+00      -8.53717e+00       1.61593e-04       9.46682e+01
 17.100      2.04050e+02       5.62329e+00      -8.29628e+00       1.59072e-04       9.31565e+01
 17.200      2.04000e+02       5.39869e+00      -8.04066e+00       1.56580e-04       9.16745e+01
 17.300      2.03975e+02       5.16658e+00      -7.77168e+00       1.54116e-04       9.02207e+01
 17.400      2.03975e+02       4.92712e+00      -7.49074e+00       1.51678e-04       8.87939e+01
 17.500      2.03999e+02       4.68052e+00      -7.19921e+00       1.49268e-04       8.73926e+01
 17.600      2.04045e+02       4.42696e+00      -6.89847e+00       1.46882e-04       8.60158e+01
 17.700      2.04114e+02       4.16664e+00      -6.58991e+00       1.44522e-04       8.46621e+01
 17.800      2.04205e+02       3.89976e+00      -6.27492e+00       1.42186e-04       8.33305e+01
 17.900      2.04316e+02       3.62650e+00      -5.95487e+00       1.39873e-04       8.20199e+01
 18.000      2.04448e+02       3.34705e+00      -5.63114e+00       1.37583e-04       8.07292e+01
 18.100      2.04599e+02       3.06161e+00      -5.30512e+00       1.35316e-04       7.94576e+01
 18.200      2.04768e+02       2.77037e+00      -4.97819e+00       1.33071e-04       7.82040e+01
 18.300      2.04956e+02       2.47353e+00      -4.65175e+00       1.30848e-04       7.69677e+01
 18.400      2.05160e+02       2.17127e+00      -4.32715e+00       1.28645e-04       7.57477e+01
 18.500      2.05381e+02       1.86378e+00      -4.00579e+00       1.26464e-04       7.45432e+01
 18.600      2.05618e+02       1.55126e+00      -3.68905e+00       1.24302e-04       7.33536e+01
 18.700      2.05869e+02       1.23390e+00      -3.37831e+00       1.22161e-04       7.21781e+01
 18.800      2.06135e+02       9.11904e-01      -3.07497e+00       1.20039e-04       7.10160e+01
 18.900      2.06414e+02       5.85444e-01      -2.78039e+00       1.17937e-04       6.98667e+01
 19.000      2.06705e+02       2.54886e-01      -2.49563e+00       1.15854e-04       6.87298e+01
 19.100      2.07008e+02      -7.89455e-02      -2.22082e+00       1.13793e-04       6.76059e+01
 19.200      2.07320e+02      -4.15145e-01      -1.95592e+00       1.11755e-04       6.64955e+01
 19.300      2.07641e+02      -7.52800e-01      -1.70091e+00       1.09743e-04       6.53991e+01
 19.400      2.07969e+02      -1.09102e+00      -1.45573e+00       1.07757e-04       6.43172e+01
 19.500      2.08303e+02      -1.42889e+00      -1.22035e+00       1.05800e-04       6.32503e+01
 19.600      2.08640e+02      -1.76550e+00      -9.94747e-01       1.03873e-04       6.21988e+01
 19.700      2.08981e+02      -2.09995e+00      -7.78872e-01       1.01977e-04       6.11631e+01
 19.800      2.09323e+02      -2.43133e+00      -5.72697e-01       1.00113e-04       6.01434e+01
 19.900      2.09665e+02      -2.75874e+00      -3.76176e-01       9.82822e-05       5.91401e+01
 20.000      2.10005e+02      -3.08128e+00      -1.89279e-01       9.64859e-05       5.81535e+01
 20.100      2.10343e+02      -3.39803e+00      -1.19689e-02       9.47245e-05       5.71838e+01
 20.200      2.10677e+02      -3.70809e+00       1.55791e-01       9.29990e-05       5.62312e+01
 20.300      2.11005e+02      -4.01054e+00       3.14034e-01       9.13099e-05       5.52958e+01
