# Data Source: NASA GEOS5 Near-Real-Time
# Model Time = 2010-10-25 18:00:00
# Location = [  39.7393, -104.9900 ]
# Fields = [ Z(km), T(K), U(m/s), V(m/s), R(g/cm3), P(mbar) ]
# Ground Height = 1.589
  0.000      2.90781e+02       4.22274e+00      -2.50328e+00       1.19317e-03       9.95748e+02
  0.100      2.90125e+02       4.19547e+00      -2.49844e+00       1.18182e-03       9.84053e+02
  0.200      2.89475e+02       4.14560e+00      -2.51668e+00       1.17054e-03       9.72481e+02
  0.300      2.88828e+02       4.07523e+00      -2.55505e+00       1.15934e-03       9.61022e+02
  0.400      2.88168e+02       4.02601e+00      -2.56850e+00       1.14828e-03       9.49676e+02
  0.500      2.87489e+02       4.02311e+00      -2.52403e+00       1.13738e-03       9.38445e+02
  0.600      2.86829e+02       4.01280e+00      -2.45262e+00       1.12649e-03       9.27326e+02
  0.700      2.86230e+02       3.93415e+00      -2.39634e+00       1.11545e-03       9.16318e+02
  0.800      2.85647e+02       3.80991e+00      -2.36992e+00       1.10443e-03       9.05419e+02
  0.900      2.85000e+02       3.69913e+00      -2.37438e+00       1.09375e-03       8.94628e+02
  1.000      2.84279e+02       3.60787e+00      -2.38559e+00       1.08342e-03       8.83943e+02
  1.100      2.83545e+02       3.48891e+00      -2.35435e+00       1.07322e-03       8.73363e+02
  1.200      2.82849e+02       3.33401e+00      -2.26122e+00       1.06296e-03       8.62884e+02
  1.300      2.82208e+02       3.23950e+00      -2.16479e+00       1.05256e-03       8.52509e+02
  1.400      2.81628e+02       3.30964e+00      -2.13636e+00       1.04202e-03       8.42238e+02
  1.500      2.81083e+02       3.57759e+00      -2.25151e+00       1.03145e-03       8.32075e+02
  1.600      2.80527e+02       4.03998e+00      -2.58713e+00       1.02101e-03       8.22026e+02
  1.700      2.79929e+02       4.64498e+00      -3.15036e+00       1.01082e-03       8.12089e+02
  1.800      2.79275e+02       5.25850e+00      -3.82918e+00       1.00092e-03       8.02255e+02
  1.900      2.78557e+02       5.74938e+00      -4.50939e+00       9.91315e-04       7.92514e+02
  2.000      2.77773e+02       6.07621e+00      -5.15410e+00       9.82003e-04       7.82862e+02
  2.100      2.76930e+02       6.24146e+00      -5.76419e+00       9.72958e-04       7.73297e+02
  2.200      2.76033e+02       6.27323e+00      -6.33839e+00       9.64156e-04       7.63818e+02
  2.300      2.75089e+02       6.25966e+00      -6.86985e+00       9.55569e-04       7.54426e+02
  2.400      2.74106e+02       6.29440e+00      -7.35054e+00       9.47167e-04       7.45121e+02
  2.500      2.73104e+02       6.40642e+00      -7.76492e+00       9.38879e-04       7.35903e+02
  2.600      2.72115e+02       6.56422e+00      -8.09046e+00       9.30593e-04       7.26765e+02
  2.700      2.71165e+02       6.73879e+00      -8.31002e+00       9.22213e-04       7.17706e+02
  2.800      2.70259e+02       6.93636e+00      -8.44769e+00       9.13727e-04       7.08725e+02
  2.900      2.69390e+02       7.17871e+00      -8.54570e+00       9.05164e-04       6.99826e+02
  3.000      2.68557e+02       7.47903e+00      -8.63579e+00       8.96535e-04       6.91012e+02
  3.100      2.67776e+02       7.81793e+00      -8.70974e+00       8.87795e-04       6.82285e+02
  3.200      2.67065e+02       8.16836e+00      -8.74994e+00       8.78884e-04       6.73645e+02
  3.300      2.66434e+02       8.51427e+00      -8.74742e+00       8.69787e-04       6.65095e+02
  3.400      2.65855e+02       8.86729e+00      -8.71489e+00       8.60594e-04       6.56635e+02
  3.500      2.65298e+02       9.24335e+00      -8.66840e+00       8.51407e-04       6.48267e+02
  3.600      2.64744e+02       9.65837e+00      -8.61747e+00       8.42294e-04       6.39989e+02
  3.700      2.64193e+02       1.01283e+01      -8.55736e+00       8.33250e-04       6.31799e+02
  3.800      2.63649e+02       1.06689e+01      -8.48144e+00       8.24261e-04       6.23696e+02
  3.900      2.63115e+02       1.12801e+01      -8.36888e+00       8.15317e-04       6.15677e+02
  4.000      2.62591e+02       1.19211e+01      -8.16354e+00       8.06417e-04       6.07745e+02
  4.100      2.62079e+02       1.25453e+01      -7.80393e+00       7.97563e-04       5.99901e+02
  4.200      2.61579e+02       1.31170e+01      -7.24301e+00       7.88756e-04       5.92145e+02
  4.300      2.61089e+02       1.36434e+01      -6.48952e+00       7.80006e-04       5.84478e+02
  4.400      2.60604e+02       1.41416e+01      -5.56564e+00       7.71321e-04       5.76897e+02
  4.500      2.60123e+02       1.46256e+01      -4.49500e+00       7.62709e-04       5.69402e+02
  4.600      2.59645e+02       1.50800e+01      -3.31395e+00       7.54167e-04       5.61991e+02
  4.700      2.59173e+02       1.54741e+01      -2.06547e+00       7.45690e-04       5.54663e+02
  4.800      2.58708e+02       1.57776e+01      -7.92243e-01       7.37270e-04       5.47417e+02
  4.900      2.58252e+02       1.59778e+01       4.79848e-01       7.28903e-04       5.40251e+02
  5.000      2.57806e+02       1.60880e+01       1.74936e+00       7.20589e-04       5.33167e+02
  5.100      2.57371e+02       1.61234e+01       3.01675e+00       7.12327e-04       5.26163e+02
  5.200      2.56946e+02       1.61000e+01       4.28125e+00       7.04117e-04       5.19240e+02
  5.300      2.56533e+02       1.60376e+01       5.53372e+00       6.95954e-04       5.12397e+02
  5.400      2.56136e+02       1.59580e+01       6.76159e+00       6.87833e-04       5.05634e+02
  5.500      2.55757e+02       1.58828e+01       7.95231e+00       6.79749e-04       4.98950e+02
  5.600      2.55393e+02       1.58402e+01       9.09077e+00       6.71706e-04       4.92345e+02
  5.700      2.55033e+02       1.58750e+01       1.01556e+01       6.63737e-04       4.85819e+02
  5.800      2.54663e+02       1.60345e+01       1.11242e+01       6.55877e-04       4.79369e+02
  5.900      2.54270e+02       1.63655e+01       1.19745e+01       6.48159e-04       4.72996e+02
  6.000      2.53840e+02       1.68806e+01       1.26920e+01       6.40612e-04       4.66699e+02
  6.100      2.53362e+02       1.75368e+01       1.32746e+01       6.33259e-04       4.60474e+02
  6.200      2.52825e+02       1.82860e+01       1.37220e+01       6.26125e-04       4.54320e+02
  6.300      2.52215e+02       1.90803e+01       1.40333e+01       6.19230e-04       4.48235e+02
  6.400      2.51531e+02       1.98922e+01       1.42078e+01       6.12577e-04       4.42215e+02
  6.500      2.50780e+02       2.07296e+01       1.42445e+01       6.06136e-04       4.36259e+02
  6.600      2.49974e+02       2.16039e+01       1.41426e+01       5.99874e-04       4.30366e+02
  6.700      2.49125e+02       2.25266e+01       1.39010e+01       5.93761e-04       4.24532e+02
  6.800      2.48243e+02       2.35087e+01       1.35289e+01       5.87765e-04       4.18757e+02
  6.900      2.47340e+02       2.45606e+01       1.30676e+01       5.81855e-04       4.13040e+02
  7.000      2.46431e+02       2.56924e+01       1.25644e+01       5.76001e-04       4.07381e+02
  7.100      2.45527e+02       2.69143e+01       1.20668e+01       5.70173e-04       4.01780e+02
  7.200      2.44641e+02       2.82342e+01       1.16202e+01       5.64342e-04       3.96236e+02
  7.300      2.43778e+02       2.96357e+01       1.12498e+01       5.58499e-04       3.90750e+02
  7.400      2.42939e+02       3.10870e+01       1.09677e+01       5.52644e-04       3.85322e+02
  7.500      2.42123e+02       3.25563e+01       1.07858e+01       5.46775e-04       3.79951e+02
  7.600      2.41332e+02       3.40119e+01       1.07161e+01       5.40895e-04       3.74636e+02
  7.700      2.40565e+02       3.54296e+01       1.07618e+01       5.35005e-04       3.69379e+02
  7.800      2.39816e+02       3.68111e+01       1.08972e+01       5.29118e-04       3.64178e+02
  7.900      2.39082e+02       3.81631e+01       1.10908e+01       5.23247e-04       3.59034e+02
  8.000      2.38356e+02       3.94924e+01       1.13111e+01       5.17405e-04       3.53947e+02
  8.100      2.37633e+02       4.08057e+01       1.15267e+01       5.11604e-04       3.48917e+02
  8.200      2.36909e+02       4.21025e+01       1.17139e+01       5.05853e-04       3.43944e+02
  8.300      2.36183e+02       4.33669e+01       1.18655e+01       5.00153e-04       3.39027e+02
  8.400      2.35456e+02       4.45810e+01       1.19766e+01       4.94505e-04       3.34166e+02
  8.500      2.34727e+02       4.57268e+01       1.20423e+01       4.88908e-04       3.29361e+02
  8.600      2.33995e+02       4.67864e+01       1.20575e+01       4.83362e-04       3.24609e+02
  8.700      2.33263e+02       4.77420e+01       1.20207e+01       4.77863e-04       3.19913e+02
  8.800      2.32542e+02       4.85765e+01       1.19406e+01       4.72390e-04       3.15271e+02
  8.900      2.31843e+02       4.92725e+01       1.18280e+01       4.66919e-04       3.10683e+02
  9.000      2.31178e+02       4.98131e+01       1.16938e+01       4.61428e-04       3.06149e+02
  9.100      2.30560e+02       5.01811e+01       1.15489e+01       4.55895e-04       3.01669e+02
  9.200      2.30000e+02       5.03614e+01       1.14033e+01       4.50301e-04       2.97244e+02
  9.300      2.29498e+02       5.03700e+01       1.12580e+01       4.44650e-04       2.92873e+02
  9.400      2.29048e+02       5.02445e+01       1.11075e+01       4.38959e-04       2.88557e+02
  9.500      2.28641e+02       5.00234e+01       1.09459e+01       4.33248e-04       2.84297e+02
  9.600      2.28270e+02       4.97448e+01       1.07676e+01       4.27533e-04       2.80092e+02
  9.700      2.27928e+02       4.94471e+01       1.05667e+01       4.21832e-04       2.75943e+02
  9.800      2.27608e+02       4.91644e+01       1.03386e+01       4.16160e-04       2.71850e+02
  9.900      2.27309e+02       4.88959e+01       1.00886e+01       4.10521e-04       2.67814e+02
 10.000      2.27030e+02       4.86239e+01       9.82650e+00       4.04914e-04       2.63833e+02
 10.100      2.26773e+02       4.83306e+01       9.56233e+00       3.99341e-04       2.59906e+02
 10.200      2.26537e+02       4.79983e+01       9.30601e+00       3.93799e-04       2.56033e+02
 10.300      2.26324e+02       4.76091e+01       9.06748e+00       3.88289e-04       2.52213e+02
 10.400      2.26135e+02       4.71458e+01       8.85648e+00       3.82811e-04       2.48447e+02
 10.500      2.25970e+02       4.66054e+01       8.67540e+00       3.77362e-04       2.44732e+02
 10.600      2.25833e+02       4.60036e+01       8.51742e+00       3.71941e-04       2.41071e+02
 10.700      2.25728e+02       4.53570e+01       8.37513e+00       3.66545e-04       2.37462e+02
 10.800      2.25657e+02       4.46822e+01       8.24113e+00       3.61171e-04       2.33907e+02
 10.900      2.25624e+02       4.39960e+01       8.10801e+00       3.55817e-04       2.30406e+02
 11.000      2.25632e+02       4.33150e+01       7.96836e+00       3.50481e-04       2.26958e+02
 11.100      2.25683e+02       4.26555e+01       7.81488e+00       3.45161e-04       2.23564e+02
 11.200      2.25775e+02       4.20233e+01       7.64310e+00       3.39866e-04       2.20224e+02
 11.300      2.25895e+02       4.14112e+01       7.45205e+00       3.34613e-04       2.16935e+02
 11.400      2.26030e+02       4.08112e+01       7.24099e+00       3.29421e-04       2.13698e+02
 11.500      2.26169e+02       4.02153e+01       7.00915e+00       3.24308e-04       2.10510e+02
 11.600      2.26299e+02       3.96157e+01       6.75577e+00       3.19288e-04       2.07371e+02
 11.700      2.26408e+02       3.90042e+01       6.48010e+00       3.14377e-04       2.04279e+02
 11.800      2.26482e+02       3.83730e+01       6.18138e+00       3.09588e-04       2.01234e+02
 11.900      2.26511e+02       3.77143e+01       5.85919e+00       3.04934e-04       1.98234e+02
 12.000      2.26490e+02       3.70240e+01       5.51832e+00       3.00415e-04       1.95278e+02
 12.100      2.26423e+02       3.63008e+01       5.16765e+00       2.96023e-04       1.92365e+02
 12.200      2.26311e+02       3.55436e+01       4.81621e+00       2.91749e-04       1.89495e+02
 12.300      2.26158e+02       3.47511e+01       4.47299e+00       2.87586e-04       1.86665e+02
 12.400      2.25967e+02       3.39222e+01       4.14700e+00       2.83528e-04       1.83875e+02
 12.500      2.25741e+02       3.30557e+01       3.84725e+00       2.79566e-04       1.81124e+02
 12.600      2.25482e+02       3.21505e+01       3.58276e+00       2.75695e-04       1.78411e+02
 12.700      2.25193e+02       3.12052e+01       3.36252e+00       2.71908e-04       1.75735e+02
 12.800      2.24877e+02       3.02200e+01       3.19532e+00       2.68199e-04       1.73095e+02
 12.900      2.24536e+02       2.92065e+01       3.08786e+00       2.64565e-04       1.70490e+02
 13.000      2.24171e+02       2.81826e+01       3.04569e+00       2.61002e-04       1.67921e+02
 13.100      2.23783e+02       2.71665e+01       3.07432e+00       2.57510e-04       1.65387e+02
 13.200      2.23373e+02       2.61762e+01       3.17929e+00       2.54084e-04       1.62888e+02
 13.300      2.22944e+02       2.52299e+01       3.36611e+00       2.50722e-04       1.60424e+02
 13.400      2.22494e+02       2.43456e+01       3.64032e+00       2.47423e-04       1.57994e+02
 13.500      2.22027e+02       2.35414e+01       4.00745e+00       2.44184e-04       1.55599e+02
 13.600      2.21543e+02       2.28353e+01       4.47302e+00       2.41003e-04       1.53237e+02
 13.700      2.21044e+02       2.22455e+01       5.04254e+00       2.37877e-04       1.50908e+02
 13.800      2.20530e+02       2.17889e+01       5.72039e+00       2.34806e-04       1.48613e+02
 13.900      2.20005e+02       2.14641e+01       6.49358e+00       2.31782e-04       1.46351e+02
 14.000      2.19475e+02       2.12565e+01       7.33609e+00       2.28799e-04       1.44119e+02
 14.100      2.18944e+02       2.11509e+01       8.22152e+00       2.25850e-04       1.41917e+02
 14.200      2.18418e+02       2.11321e+01       9.12348e+00       2.22926e-04       1.39743e+02
 14.300      2.17901e+02       2.11850e+01       1.00156e+01       2.20023e-04       1.37597e+02
 14.400      2.17399e+02       2.12943e+01       1.08715e+01       2.17133e-04       1.35477e+02
 14.500      2.16918e+02       2.14451e+01       1.16648e+01       2.14251e-04       1.33382e+02
 14.600      2.16461e+02       2.16219e+01       1.23691e+01       2.11369e-04       1.31312e+02
 14.700      2.16035e+02       2.18099e+01       1.29581e+01       2.08484e-04       1.29264e+02
 14.800      2.15644e+02       2.19937e+01       1.34052e+01       2.05590e-04       1.27239e+02
 14.900      2.15293e+02       2.21582e+01       1.36843e+01       2.02681e-04       1.25235e+02
 15.000      2.14988e+02       2.22900e+01       1.37741e+01       1.99756e-04       1.23252e+02
 15.100      2.14725e+02       2.23856e+01       1.36836e+01       1.96819e-04       1.21291e+02
 15.200      2.14501e+02       2.24451e+01       1.34324e+01       1.93877e-04       1.19354e+02
 15.300      2.14313e+02       2.24685e+01       1.30401e+01       1.90938e-04       1.17442e+02
 15.400      2.14157e+02       2.24559e+01       1.25264e+01       1.88010e-04       1.15557e+02
 15.500      2.14029e+02       2.24073e+01       1.19109e+01       1.85098e-04       1.13699e+02
 15.600      2.13926e+02       2.23228e+01       1.12131e+01       1.82209e-04       1.11870e+02
 15.700      2.13843e+02       2.22025e+01       1.04528e+01       1.79349e-04       1.10072e+02
 15.800      2.13777e+02       2.20464e+01       9.64959e+00       1.76524e-04       1.08304e+02
 15.900      2.13724e+02       2.18545e+01       8.82303e+00       1.73738e-04       1.06569e+02
 16.000      2.13681e+02       2.16270e+01       7.99278e+00       1.70997e-04       1.04866e+02
 16.100      2.13643e+02       2.13638e+01       7.17846e+00       1.68305e-04       1.03198e+02
 16.200      2.13608e+02       2.10651e+01       6.39970e+00       1.65667e-04       1.01563e+02
 16.300      2.13571e+02       2.07308e+01       5.67614e+00       1.63086e-04       9.99632e+01
 16.400      2.13529e+02       2.03615e+01       5.02324e+00       1.60564e-04       9.83985e+01
 16.500      2.13483e+02       1.99594e+01       4.44106e+00       1.58100e-04       9.68673e+01
 16.600      2.13432e+02       1.95268e+01       3.92605e+00       1.55690e-04       9.53681e+01
 16.700      2.13377e+02       1.90665e+01       3.47467e+00       1.53332e-04       9.38992e+01
 16.800      2.13319e+02       1.85809e+01       3.08337e+00       1.51021e-04       9.24592e+01
 16.900      2.13258e+02       1.80725e+01       2.74859e+00       1.48756e-04       9.10463e+01
 17.000      2.13195e+02       1.75438e+01       2.46679e+00       1.46533e-04       8.96594e+01
 17.100      2.13130e+02       1.69974e+01       2.23441e+00       1.44351e-04       8.82970e+01
 17.200      2.13063e+02       1.64359e+01       2.04792e+00       1.42206e-04       8.69578e+01
 17.300      2.12996e+02       1.58616e+01       1.90375e+00       1.40097e-04       8.56408e+01
 17.400      2.12928e+02       1.52773e+01       1.79837e+00       1.38020e-04       8.43445e+01
 17.500      2.12860e+02       1.46853e+01       1.72821e+00       1.35975e-04       8.30681e+01
 17.600      2.12792e+02       1.40882e+01       1.68974e+00       1.33958e-04       8.18103e+01
 17.700      2.12726e+02       1.34885e+01       1.67940e+00       1.31969e-04       8.05703e+01
 17.800      2.12661e+02       1.28889e+01       1.69365e+00       1.30005e-04       7.93470e+01
 17.900      2.12598e+02       1.22917e+01       1.72893e+00       1.28065e-04       7.81395e+01
 18.000      2.12538e+02       1.16995e+01       1.78169e+00       1.26146e-04       7.69469e+01
 18.100      2.12480e+02       1.11149e+01       1.84839e+00       1.24248e-04       7.57685e+01
 18.200      2.12426e+02       1.05403e+01       1.92548e+00       1.22368e-04       7.46034e+01
 18.300      2.12376e+02       9.97840e+00       2.00941e+00       1.20507e-04       7.34510e+01
 18.400      2.12330e+02       9.43157e+00       2.09662e+00       1.18661e-04       7.23105e+01
 18.500      2.12289e+02       8.90239e+00       2.18358e+00       1.16831e-04       7.11812e+01
 18.600      2.12253e+02       8.39338e+00       2.26673e+00       1.15014e-04       7.00626e+01
 18.700      2.12223e+02       7.90677e+00       2.34303e+00       1.13210e-04       6.89541e+01
 18.800      2.12199e+02       7.44329e+00       2.41190e+00       1.11421e-04       6.78564e+01
 18.900      2.12180e+02       7.00323e+00       2.47345e+00       1.09646e-04       6.67699e+01
 19.000      2.12166e+02       6.58689e+00       2.52782e+00       1.07889e-04       6.56953e+01
 19.100      2.12157e+02       6.19458e+00       2.57513e+00       1.06149e-04       6.46331e+01
 19.200      2.12153e+02       5.82660e+00       2.61550e+00       1.04428e-04       6.35839e+01
 19.300      2.12153e+02       5.48324e+00       2.64906e+00       1.02727e-04       6.25481e+01
 19.400      2.12157e+02       5.16480e+00       2.67595e+00       1.01046e-04       6.15261e+01
 19.500      2.12165e+02       4.87159e+00       2.69628e+00       9.93875e-05       6.05184e+01
 19.600      2.12176e+02       4.60389e+00       2.71018e+00       9.77513e-05       5.95253e+01
 19.700      2.12191e+02       4.36202e+00       2.71777e+00       9.61383e-05       5.85471e+01
 19.800      2.12209e+02       4.14627e+00       2.71919e+00       9.45492e-05       5.75842e+01
 19.900      2.12230e+02       3.95694e+00       2.71456e+00       9.29847e-05       5.66369e+01
 20.000      2.12253e+02       3.79432e+00       2.70401e+00       9.14452e-05       5.57052e+01
 20.100      2.12278e+02       3.65873e+00       2.68765e+00       8.99313e-05       5.47896e+01
 20.200      2.12306e+02       3.55045e+00       2.66563e+00       8.84435e-05       5.38901e+01
 20.300      2.12335e+02       3.46980e+00       2.63806e+00       8.69821e-05       5.30070e+01
