# Data Source: NASA GEOS5 Near-Real-Time
# Model Time = 2011-03-06 18:00:00
# Location = [  39.1026,  -84.5123 ]
# Fields = [ Z(km), T(K), U(m/s), V(m/s), R(g/cm3), P(mbar) ]
# Ground Height = 0.165
  0.000      2.75747e+02       1.03697e+00      -5.15704e+00       1.29184e-03       1.02236e+03
  0.100      2.74817e+02       8.85090e-01      -5.79215e+00       1.28015e-03       1.00968e+03
  0.200      2.73926e+02       8.16513e-01      -6.47104e+00       1.26842e-03       9.97191e+02
  0.300      2.73024e+02       7.23611e-01      -7.13714e+00       1.25686e-03       9.84846e+02
  0.400      2.72058e+02       4.98954e-01      -7.73403e+00       1.24565e-03       9.72615e+02
  0.500      2.71043e+02       7.97877e-02      -8.23449e+00       1.23472e-03       9.60480e+02
  0.600      2.70143e+02      -4.95708e-01      -8.67723e+00       1.22332e-03       9.48454e+02
  0.700      2.69420e+02      -1.15724e+00      -9.09204e+00       1.21121e-03       9.36547e+02
  0.800      2.68610e+02      -1.78467e+00      -9.45964e+00       1.19956e-03       9.24755e+02
  0.900      2.67600e+02      -2.35483e+00      -9.80101e+00       1.18887e-03       9.13071e+02
  1.000      2.67046e+02      -3.24064e+00      -1.03195e+01       1.17625e-03       9.01506e+02
  1.100      2.67584e+02      -4.79172e+00      -1.11928e+01       1.15900e-03       8.90075e+02
  1.200      2.68670e+02      -6.66563e+00      -1.21915e+01       1.13971e-03       8.78808e+02
  1.300      2.69380e+02      -8.29216e+00      -1.29591e+01       1.12238e-03       8.67735e+02
  1.400      2.69503e+02      -9.42641e+00      -1.34122e+01       1.10778e-03       8.56840e+02
  1.500      2.69290e+02      -1.00401e+01      -1.36474e+01       1.09474e-03       8.46078e+02
  1.600      2.68916e+02      -1.01866e+01      -1.37446e+01       1.08245e-03       8.35427e+02
  1.700      2.68438e+02      -1.00301e+01      -1.37548e+01       1.07071e-03       8.24891e+02
  1.800      2.67903e+02      -9.71345e+00      -1.37178e+01       1.05930e-03       8.14473e+02
  1.900      2.67378e+02      -9.26419e+00      -1.36376e+01       1.04795e-03       8.04168e+02
  2.000      2.66928e+02      -8.68338e+00      -1.35103e+01       1.03640e-03       7.93969e+02
  2.100      2.66560e+02      -7.99287e+00      -1.33375e+01       1.02464e-03       7.83879e+02
  2.200      2.66230e+02      -7.23079e+00      -1.31257e+01       1.01286e-03       7.73908e+02
  2.300      2.65899e+02      -6.42974e+00      -1.28837e+01       1.00122e-03       7.64060e+02
  2.400      2.65540e+02      -5.60509e+00      -1.26274e+01       9.89802e-04       7.54328e+02
  2.500      2.65130e+02      -4.76915e+00      -1.23733e+01       9.78681e-04       7.44702e+02
  2.600      2.64676e+02      -3.93490e+00      -1.21304e+01       9.67822e-04       7.35177e+02
  2.700      2.64211e+02      -3.11591e+00      -1.19013e+01       9.57102e-04       7.25756e+02
  2.800      2.63767e+02      -2.32162e+00      -1.16870e+01       9.46403e-04       7.16439e+02
  2.900      2.63374e+02      -1.54026e+00      -1.14813e+01       9.35632e-04       7.07228e+02
  3.000      2.63056e+02      -7.53415e-01      -1.12760e+01       9.24705e-04       6.98125e+02
  3.100      2.62822e+02       3.94345e-02      -1.10690e+01       9.13604e-04       6.89131e+02
  3.200      2.62643e+02       7.99665e-01      -1.08711e+01       9.02441e-04       6.80247e+02
  3.300      2.62483e+02       1.48427e+00      -1.06948e+01       8.91344e-04       6.71472e+02
  3.400      2.62321e+02       2.08069e+00      -1.05428e+01       8.80383e-04       6.62806e+02
  3.500      2.62154e+02       2.61556e+00      -1.04053e+01       8.69567e-04       6.54245e+02
  3.600      2.61978e+02       3.11704e+00      -1.02721e+01       8.58901e-04       6.45789e+02
  3.700      2.61786e+02       3.58915e+00      -1.01401e+01       8.48412e-04       6.37434e+02
  3.800      2.61561e+02       4.01172e+00      -1.00136e+01       8.38145e-04       6.29180e+02
  3.900      2.61288e+02       4.36509e+00      -9.89648e+00       8.28146e-04       6.21024e+02
  4.000      2.60952e+02       4.66720e+00      -9.77666e+00       8.18452e-04       6.12964e+02
  4.100      2.60538e+02       4.97469e+00      -9.62535e+00       8.09099e-04       6.04999e+02
  4.200      2.60034e+02       5.34520e+00      -9.41368e+00       8.00117e-04       5.97124e+02
  4.300      2.59437e+02       5.79906e+00      -9.14281e+00       7.91500e-04       5.89338e+02
  4.400      2.58764e+02       6.30366e+00      -8.85649e+00       7.83186e-04       5.81635e+02
  4.500      2.58033e+02       6.82238e+00      -8.60169e+00       7.75113e-04       5.74013e+02
  4.600      2.57257e+02       7.32925e+00      -8.40876e+00       7.67233e-04       5.66468e+02
  4.700      2.56440e+02       7.82730e+00      -8.26281e+00       7.59528e-04       5.59000e+02
  4.800      2.55585e+02       8.32444e+00      -8.14133e+00       7.51988e-04       5.51606e+02
  4.900      2.54695e+02       8.82682e+00      -8.02399e+00       7.44601e-04       5.44285e+02
  5.000      2.53780e+02       9.32683e+00      -7.90781e+00       7.37337e-04       5.37038e+02
  5.100      2.52850e+02       9.81034e+00      -7.79799e+00       7.30159e-04       5.29861e+02
  5.200      2.51917e+02       1.02634e+01      -7.69958e+00       7.23033e-04       5.22753e+02
  5.300      2.50989e+02       1.06825e+01      -7.60568e+00       7.15935e-04       5.15715e+02
  5.400      2.50066e+02       1.10817e+01      -7.49004e+00       7.08863e-04       5.08744e+02
  5.500      2.49151e+02       1.14763e+01      -7.32465e+00       7.01817e-04       5.01843e+02
  5.600      2.48243e+02       1.18804e+01      -7.08419e+00       6.94796e-04       4.95012e+02
  5.700      2.47346e+02       1.22948e+01      -6.76843e+00       6.87787e-04       4.88249e+02
  5.800      2.46468e+02       1.27132e+01      -6.39074e+00       6.80775e-04       4.81556e+02
  5.900      2.45615e+02       1.31294e+01      -5.96462e+00       6.73742e-04       4.74932e+02
  6.000      2.44793e+02       1.35383e+01      -5.50029e+00       6.66675e-04       4.68377e+02
  6.100      2.44005e+02       1.39402e+01      -4.99523e+00       6.59569e-04       4.61892e+02
  6.200      2.43252e+02       1.43366e+01      -4.44382e+00       6.52422e-04       4.55476e+02
  6.300      2.42536e+02       1.47291e+01      -3.84044e+00       6.45231e-04       4.49131e+02
  6.400      2.41858e+02       1.51146e+01      -3.17758e+00       6.37998e-04       4.42855e+02
  6.500      2.41215e+02       1.54776e+01      -2.44261e+00       6.30738e-04       4.36651e+02
  6.600      2.40601e+02       1.58006e+01      -1.62206e+00       6.23464e-04       4.30518e+02
  6.700      2.40013e+02       1.60661e+01      -7.02473e-01       6.16192e-04       4.24457e+02
  6.800      2.39445e+02       1.62609e+01       3.25825e-01       6.08941e-04       4.18468e+02
  6.900      2.38880e+02       1.63852e+01       1.46090e+00       6.01748e-04       4.12550e+02
  7.000      2.38304e+02       1.64417e+01       2.69861e+00       5.94653e-04       4.06702e+02
  7.100      2.37699e+02       1.64330e+01       4.03483e+00       5.87692e-04       4.00922e+02
  7.200      2.37053e+02       1.63618e+01       5.46384e+00       5.80897e-04       3.95209e+02
  7.300      2.36367e+02       1.62307e+01       6.96961e+00       5.74261e-04       3.89563e+02
  7.400      2.35648e+02       1.60423e+01       8.53198e+00       5.67760e-04       3.83981e+02
  7.500      2.34904e+02       1.57989e+01       1.01308e+01       5.61374e-04       3.78463e+02
  7.600      2.34142e+02       1.55032e+01       1.17459e+01       5.55081e-04       3.73008e+02
  7.700      2.33368e+02       1.51576e+01       1.33645e+01       5.48869e-04       3.67614e+02
  7.800      2.32585e+02       1.47640e+01       1.49834e+01       5.42728e-04       3.62281e+02
  7.900      2.31793e+02       1.43247e+01       1.66002e+01       5.36654e-04       3.57006e+02
  8.000      2.30994e+02       1.38418e+01       1.82126e+01       5.30641e-04       3.51790e+02
  8.100      2.30192e+02       1.33175e+01       1.98166e+01       5.24680e-04       3.46631e+02
  8.200      2.29393e+02       1.27557e+01       2.13866e+01       5.18759e-04       3.41529e+02
  8.300      2.28606e+02       1.21616e+01       2.28825e+01       5.12858e-04       3.36485e+02
  8.400      2.27840e+02       1.15400e+01       2.42643e+01       5.06958e-04       3.31500e+02
  8.500      2.27105e+02       1.08962e+01       2.54916e+01       5.01040e-04       3.26574e+02
  8.600      2.26410e+02       1.02357e+01       2.65284e+01       4.95088e-04       3.21707e+02
  8.700      2.25759e+02       9.57112e+00       2.73849e+01       4.89098e-04       3.16900e+02
  8.800      2.25150e+02       8.91902e+00       2.80998e+01       4.83074e-04       3.12153e+02
  8.900      2.24584e+02       8.29623e+00       2.87126e+01       4.77019e-04       3.07465e+02
  9.000      2.24060e+02       7.71953e+00       2.92627e+01       4.70937e-04       3.02837e+02
  9.100      2.23577e+02       7.20560e+00       2.97889e+01       4.64832e-04       2.98267e+02
  9.200      2.23131e+02       6.76832e+00       3.03071e+01       4.58719e-04       2.93757e+02
  9.300      2.22706e+02       6.41759e+00       3.08014e+01       4.52628e-04       2.89305e+02
  9.400      2.22290e+02       6.16308e+00       3.12539e+01       4.46588e-04       2.84911e+02
  9.500      2.21869e+02       6.01443e+00       3.16467e+01       4.40627e-04       2.80575e+02
  9.600      2.21428e+02       5.98129e+00       3.19617e+01       4.34772e-04       2.76297e+02
  9.700      2.20957e+02       6.07222e+00       3.21814e+01       4.29044e-04       2.72076e+02
  9.800      2.20464e+02       6.28435e+00       3.22930e+01       4.23421e-04       2.67912e+02
  9.900      2.19974e+02       6.60794e+00       3.22867e+01       4.17858e-04       2.63805e+02
 10.000      2.19511e+02       7.03317e+00       3.21526e+01       4.12309e-04       2.59753e+02
 10.100      2.19097e+02       7.55020e+00       3.18809e+01       4.06733e-04       2.55757e+02
 10.200      2.18757e+02       8.14921e+00       3.14618e+01       4.01087e-04       2.51816e+02
 10.300      2.18514e+02       8.81994e+00       3.08862e+01       3.95336e-04       2.47929e+02
 10.400      2.18370e+02       9.54354e+00       3.01630e+01       3.89483e-04       2.44097e+02
 10.500      2.18310e+02       1.02934e+01       2.93172e+01       3.83563e-04       2.40320e+02
 10.600      2.18318e+02       1.10425e+01       2.83745e+01       3.77610e-04       2.36600e+02
 10.700      2.18380e+02       1.17639e+01       2.73603e+01       3.71658e-04       2.32937e+02
 10.800      2.18479e+02       1.24307e+01       2.63004e+01       3.65739e-04       2.29332e+02
 10.900      2.18600e+02       1.30160e+01       2.52204e+01       3.59883e-04       2.25784e+02
 11.000      2.18728e+02       1.34966e+01       2.41444e+01       3.54115e-04       2.22295e+02
 11.100      2.18854e+02       1.38805e+01       2.30860e+01       3.48447e-04       2.18864e+02
 11.200      2.18973e+02       1.41906e+01       2.20535e+01       3.42887e-04       2.15488e+02
 11.300      2.19079e+02       1.44497e+01       2.10552e+01       3.37438e-04       2.12167e+02
 11.400      2.19167e+02       1.46806e+01       2.00992e+01       3.32107e-04       2.08898e+02
 11.500      2.19231e+02       1.49064e+01       1.91940e+01       3.26897e-04       2.05682e+02
 11.600      2.19266e+02       1.51498e+01       1.83477e+01       3.21813e-04       2.02515e+02
 11.700      2.19266e+02       1.54337e+01       1.75687e+01       3.16859e-04       1.99397e+02
 11.800      2.19228e+02       1.57696e+01       1.68604e+01       3.12034e-04       1.96327e+02
 11.900      2.19158e+02       1.61432e+01       1.62153e+01       3.07327e-04       1.93303e+02
 12.000      2.19061e+02       1.65368e+01       1.56245e+01       3.02727e-04       1.90326e+02
 12.100      2.18942e+02       1.69326e+01       1.50792e+01       2.98223e-04       1.87392e+02
 12.200      2.18807e+02       1.73128e+01       1.45702e+01       2.93806e-04       1.84503e+02
 12.300      2.18661e+02       1.76597e+01       1.40888e+01       2.89466e-04       1.81656e+02
 12.400      2.18511e+02       1.79555e+01       1.36259e+01       2.85193e-04       1.78852e+02
 12.500      2.18361e+02       1.81824e+01       1.31727e+01       2.80979e-04       1.76089e+02
 12.600      2.18217e+02       1.83239e+01       1.27207e+01       2.76817e-04       1.73366e+02
 12.700      2.18081e+02       1.83811e+01       1.22680e+01       2.72703e-04       1.70683e+02
 12.800      2.17953e+02       1.83692e+01       1.18180e+01       2.68638e-04       1.68040e+02
 12.900      2.17832e+02       1.83032e+01       1.13743e+01       2.64622e-04       1.65436e+02
 13.000      2.17718e+02       1.81985e+01       1.09402e+01       2.60657e-04       1.62872e+02
 13.100      2.17611e+02       1.80703e+01       1.05193e+01       2.56743e-04       1.60347e+02
 13.200      2.17510e+02       1.79341e+01       1.01150e+01       2.52881e-04       1.57862e+02
 13.300      2.17414e+02       1.78049e+01       9.73078e+00       2.49071e-04       1.55414e+02
 13.400      2.17323e+02       1.76981e+01       9.37017e+00       2.45313e-04       1.53006e+02
 13.500      2.17237e+02       1.76290e+01       9.03661e+00       2.41608e-04       1.50635e+02
 13.600      2.17155e+02       1.76112e+01       8.73310e+00       2.37956e-04       1.48303e+02
 13.700      2.17077e+02       1.76438e+01       8.45813e+00       2.34357e-04       1.46007e+02
 13.800      2.17002e+02       1.77176e+01       8.20770e+00       2.30808e-04       1.43747e+02
 13.900      2.16929e+02       1.78235e+01       7.97781e+00       2.27310e-04       1.41520e+02
 14.000      2.16857e+02       1.79522e+01       7.76447e+00       2.23860e-04       1.39326e+02
 14.100      2.16786e+02       1.80947e+01       7.56365e+00       2.20458e-04       1.37164e+02
 14.200      2.16714e+02       1.82417e+01       7.37136e+00       2.17102e-04       1.35031e+02
 14.300      2.16642e+02       1.83842e+01       7.18359e+00       2.13792e-04       1.32928e+02
 14.400      2.16567e+02       1.85129e+01       6.99633e+00       2.10527e-04       1.30852e+02
 14.500      2.16490e+02       1.86186e+01       6.80558e+00       2.07305e-04       1.28804e+02
 14.600      2.16409e+02       1.86922e+01       6.60733e+00       2.04126e-04       1.26781e+02
 14.700      2.16324e+02       1.87246e+01       6.39759e+00       2.00988e-04       1.24783e+02
 14.800      2.16234e+02       1.87094e+01       6.17379e+00       1.97892e-04       1.22810e+02
 14.900      2.16140e+02       1.86490e+01       5.93763e+00       1.94838e-04       1.20862e+02
 15.000      2.16043e+02       1.85468e+01       5.69152e+00       1.91826e-04       1.18941e+02
 15.100      2.15944e+02       1.84068e+01       5.43792e+00       1.88858e-04       1.17047e+02
 15.200      2.15844e+02       1.82325e+01       5.17926e+00       1.85935e-04       1.15181e+02
 15.300      2.15743e+02       1.80276e+01       4.91797e+00       1.83056e-04       1.13345e+02
 15.400      2.15642e+02       1.77959e+01       4.65649e+00       1.80224e-04       1.11539e+02
 15.500      2.15542e+02       1.75411e+01       4.39725e+00       1.77437e-04       1.09764e+02
 15.600      2.15445e+02       1.72667e+01       4.14270e+00       1.74697e-04       1.08020e+02
 15.700      2.15350e+02       1.69767e+01       3.89526e+00       1.72003e-04       1.06307e+02
 15.800      2.15259e+02       1.66746e+01       3.65737e+00       1.69357e-04       1.04628e+02
 15.900      2.15173e+02       1.63641e+01       3.43147e+00       1.66758e-04       1.02981e+02
 16.000      2.15092e+02       1.60489e+01       3.21999e+00       1.64207e-04       1.01368e+02
 16.100      2.15018e+02       1.57328e+01       3.02537e+00       1.61704e-04       9.97877e+01
 16.200      2.14951e+02       1.54185e+01       2.84925e+00       1.59248e-04       9.82414e+01
 16.300      2.14890e+02       1.51066e+01       2.69112e+00       1.56837e-04       9.67271e+01
 16.400      2.14837e+02       1.47970e+01       2.55013e+00       1.54470e-04       9.52433e+01
 16.500      2.14790e+02       1.44899e+01       2.42542e+00       1.52144e-04       9.37886e+01
 16.600      2.14749e+02       1.41853e+01       2.31614e+00       1.49857e-04       9.23616e+01
 16.700      2.14715e+02       1.38834e+01       2.22143e+00       1.47608e-04       9.09609e+01
 16.800      2.14687e+02       1.35841e+01       2.14044e+00       1.45395e-04       8.95852e+01
 16.900      2.14665e+02       1.32876e+01       2.07231e+00       1.43215e-04       8.82334e+01
 17.000      2.14649e+02       1.29940e+01       2.01618e+00       1.41068e-04       8.69041e+01
 17.100      2.14639e+02       1.27032e+01       1.97121e+00       1.38952e-04       8.55964e+01
 17.200      2.14634e+02       1.24155e+01       1.93653e+00       1.36866e-04       8.43091e+01
 17.300      2.14635e+02       1.21308e+01       1.91129e+00       1.34807e-04       8.30414e+01
 17.400      2.14640e+02       1.18493e+01       1.89463e+00       1.32775e-04       8.17919e+01
 17.500      2.14651e+02       1.15709e+01       1.88571e+00       1.30769e-04       8.05601e+01
 17.600      2.14667e+02       1.12959e+01       1.88365e+00       1.28787e-04       7.93449e+01
 17.700      2.14688e+02       1.10243e+01       1.88762e+00       1.26828e-04       7.81455e+01
 17.800      2.14713e+02       1.07560e+01       1.89675e+00       1.24891e-04       7.69612e+01
 17.900      2.14742e+02       1.04913e+01       1.91018e+00       1.22975e-04       7.57911e+01
 18.000      2.14776e+02       1.02302e+01       1.92707e+00       1.21080e-04       7.46344e+01
 18.100      2.14814e+02       9.97280e+00       1.94656e+00       1.19203e-04       7.34907e+01
 18.200      2.14857e+02       9.71910e+00       1.96778e+00       1.17345e-04       7.23591e+01
 18.300      2.14903e+02       9.46923e+00       1.98989e+00       1.15504e-04       7.12391e+01
 18.400      2.14952e+02       9.22325e+00       2.01203e+00       1.13679e-04       7.01301e+01
 18.500      2.15005e+02       8.98128e+00       2.03342e+00       1.11871e-04       6.90317e+01
 18.600      2.15062e+02       8.74363e+00       2.05366e+00       1.10080e-04       6.79443e+01
 18.700      2.15121e+02       8.51070e+00       2.07251e+00       1.08307e-04       6.68683e+01
 18.800      2.15183e+02       8.28288e+00       2.08972e+00       1.06553e-04       6.58044e+01
 18.900      2.15247e+02       8.06056e+00       2.10504e+00       1.04819e-04       6.47530e+01
 19.000      2.15312e+02       7.84414e+00       2.11824e+00       1.03107e-04       6.37147e+01
 19.100      2.15380e+02       7.63400e+00       2.12905e+00       1.01417e-04       6.26898e+01
 19.200      2.15448e+02       7.43053e+00       2.13723e+00       9.97497e-05       6.16788e+01
 19.300      2.15517e+02       7.23415e+00       2.14253e+00       9.81061e-05       6.06819e+01
 19.400      2.15586e+02       7.04522e+00       2.14471e+00       9.64869e-05       5.96996e+01
 19.500      2.15656e+02       6.86414e+00       2.14352e+00       9.48926e-05       5.87322e+01
 19.600      2.15725e+02       6.69131e+00       2.13871e+00       9.33240e-05       5.77798e+01
 19.700      2.15794e+02       6.52712e+00       2.13004e+00       9.17813e-05       5.68428e+01
 19.800      2.15862e+02       6.37197e+00       2.11726e+00       9.02653e-05       5.59214e+01
 19.900      2.15928e+02       6.22624e+00       2.10011e+00       8.87761e-05       5.50157e+01
 20.000      2.15993e+02       6.09032e+00       2.07835e+00       8.73142e-05       5.41260e+01
 20.100      2.16055e+02       5.96461e+00       2.05174e+00       8.58799e-05       5.32523e+01
 20.200      2.16116e+02       5.84950e+00       2.02003e+00       8.44734e-05       5.23948e+01
 20.300      2.16173e+02       5.74539e+00       1.98297e+00       8.30951e-05       5.15536e+01
