# Data Source: NASA GEOS5 Near-Real-Time
# Model Time = 2010-11-23 18:00:00
# Location = [  39.7393, -104.9900 ]
# Fields = [ Z(km), T(K), U(m/s), V(m/s), R(g/cm3), P(mbar) ]
# Ground Height = 1.589
  0.000      2.90259e+02       4.36788e-01       4.57394e+00       1.20810e-03       1.00640e+03
  0.100      2.89605e+02       4.09784e-01       4.61050e+00       1.19664e-03       9.94610e+02
  0.200      2.88954e+02       3.94941e-01       4.64621e+00       1.18528e-03       9.82950e+02
  0.300      2.88312e+02       4.18432e-01       4.67908e+00       1.17396e-03       9.71400e+02
  0.400      2.87675e+02       4.83202e-01       4.69597e+00       1.16269e-03       9.59952e+02
  0.500      2.87022e+02       5.54139e-01       4.66551e+00       1.15158e-03       9.48614e+02
  0.600      2.86345e+02       5.98206e-01       4.58101e+00       1.14065e-03       9.37394e+02
  0.700      2.85681e+02       5.97951e-01       4.50915e+00       1.12975e-03       9.26286e+02
  0.800      2.85058e+02       5.46785e-01       4.51274e+00       1.11877e-03       9.15284e+02
  0.900      2.84418e+02       4.84638e-01       4.56093e+00       1.10794e-03       9.04385e+02
  1.000      2.83678e+02       4.64015e-01       4.59066e+00       1.09756e-03       8.93589e+02
  1.100      2.82880e+02       4.78790e-01       4.55268e+00       1.08749e-03       8.82896e+02
  1.200      2.82162e+02       4.77371e-01       4.40909e+00       1.07718e-03       8.72308e+02
  1.300      2.81575e+02       4.39630e-01       4.19037e+00       1.06646e-03       8.61824e+02
  1.400      2.81003e+02       4.07999e-01       4.05733e+00       1.05575e-03       8.51443e+02
  1.500      2.80327e+02       4.28456e-01       4.15289e+00       1.04552e-03       8.41163e+02
  1.600      2.79523e+02       5.25458e-01       4.42057e+00       1.03584e-03       8.30981e+02
  1.700      2.78603e+02       7.14783e-01       4.73066e+00       1.02664e-03       8.20891e+02
  1.800      2.77598e+02       9.91871e-01       5.03140e+00       1.01780e-03       8.10889e+02
  1.900      2.76568e+02       1.32632e+00       5.37022e+00       1.00910e-03       8.00974e+02
  2.000      2.75575e+02       1.68782e+00       5.77439e+00       1.00031e-03       7.91144e+02
  2.100      2.74678e+02       2.05542e+00       6.12795e+00       9.91218e-04       7.81403e+02
  2.200      2.73937e+02       2.41166e+00       6.26852e+00       9.81630e-04       7.71756e+02
  2.300      2.73361e+02       2.75745e+00       6.12602e+00       9.71523e-04       7.62204e+02
  2.400      2.72886e+02       3.12187e+00       5.77187e+00       9.61145e-04       7.52751e+02
  2.500      2.72443e+02       3.53571e+00       5.29001e+00       9.50744e-04       7.43399e+02
  2.600      2.71997e+02       4.02272e+00       4.76899e+00       9.40453e-04       7.34147e+02
  2.700      2.71527e+02       4.60259e+00       4.30008e+00       9.30335e-04       7.24995e+02
  2.800      2.71019e+02       5.28766e+00       3.95695e+00       9.20443e-04       7.15942e+02
  2.900      2.70464e+02       6.06124e+00       3.74280e+00       9.10792e-04       7.06986e+02
  3.000      2.69861e+02       6.89942e+00       3.64329e+00       9.01387e-04       6.98125e+02
  3.100      2.69214e+02       7.78319e+00       3.64753e+00       8.92204e-04       6.89355e+02
  3.200      2.68546e+02       8.70418e+00       3.75214e+00       8.83159e-04       6.80675e+02
  3.300      2.67885e+02       9.65547e+00       3.95450e+00       8.74160e-04       6.72080e+02
  3.400      2.67245e+02       1.06364e+01       4.24046e+00       8.65159e-04       6.63571e+02
  3.500      2.66623e+02       1.16556e+01       4.57834e+00       8.56168e-04       6.55148e+02
  3.600      2.66017e+02       1.27223e+01       4.93515e+00       8.47201e-04       6.46812e+02
  3.700      2.65422e+02       1.38215e+01       5.28414e+00       8.38272e-04       6.38564e+02
  3.800      2.64835e+02       1.49064e+01       5.60700e+00       8.29396e-04       6.30404e+02
  3.900      2.64251e+02       1.59282e+01       5.88626e+00       8.20585e-04       6.22333e+02
  4.000      2.63668e+02       1.68554e+01       6.11695e+00       8.11851e-04       6.14349e+02
  4.100      2.63079e+02       1.76843e+01       6.31362e+00       8.03206e-04       6.06451e+02
  4.200      2.62483e+02       1.84133e+01       6.49248e+00       7.94660e-04       5.98638e+02
  4.300      2.61874e+02       1.90408e+01       6.66204e+00       7.86222e-04       5.90907e+02
  4.400      2.61252e+02       1.95651e+01       6.81242e+00       7.77893e-04       5.83258e+02
  4.500      2.60615e+02       1.99846e+01       6.93101e+00       7.69673e-04       5.75689e+02
  4.600      2.59964e+02       2.03008e+01       7.00855e+00       7.61562e-04       5.68198e+02
  4.700      2.59299e+02       2.05326e+01       7.05324e+00       7.53555e-04       5.60786e+02
  4.800      2.58622e+02       2.07047e+01       7.07906e+00       7.45643e-04       5.53451e+02
  4.900      2.57937e+02       2.08410e+01       7.09981e+00       7.37820e-04       5.46192e+02
  5.000      2.57242e+02       2.09540e+01       7.12631e+00       7.30084e-04       5.39009e+02
  5.100      2.56537e+02       2.10453e+01       7.16656e+00       7.22439e-04       5.31903e+02
  5.200      2.55820e+02       2.11161e+01       7.22848e+00       7.14888e-04       5.24874e+02
  5.300      2.55091e+02       2.11704e+01       7.31794e+00       7.07434e-04       5.17920e+02
  5.400      2.54348e+02       2.12216e+01       7.43312e+00       7.00074e-04       5.11039e+02
  5.500      2.53591e+02       2.12856e+01       7.57040e+00       6.92809e-04       5.04231e+02
  5.600      2.52820e+02       2.13784e+01       7.72618e+00       6.85634e-04       4.97491e+02
  5.700      2.52036e+02       2.15121e+01       7.89774e+00       6.78543e-04       4.90820e+02
  5.800      2.51244e+02       2.16939e+01       8.08360e+00       6.71524e-04       4.84217e+02
  5.900      2.50450e+02       2.19306e+01       8.28238e+00       6.64563e-04       4.77682e+02
  6.000      2.49659e+02       2.22289e+01       8.49268e+00       6.57647e-04       4.71217e+02
  6.100      2.48871e+02       2.25888e+01       8.71264e+00       6.50774e-04       4.64821e+02
  6.200      2.48086e+02       2.30057e+01       8.94009e+00       6.43944e-04       4.58492e+02
  6.300      2.47301e+02       2.34747e+01       9.17282e+00       6.37162e-04       4.52228e+02
  6.400      2.46517e+02       2.39908e+01       9.40856e+00       6.30428e-04       4.46030e+02
  6.500      2.45731e+02       2.45452e+01       9.64396e+00       6.23745e-04       4.39895e+02
  6.600      2.44946e+02       2.51270e+01       9.87492e+00       6.17111e-04       4.33826e+02
  6.700      2.44161e+02       2.57251e+01       1.00974e+01       6.10527e-04       4.27822e+02
  6.800      2.43378e+02       2.63284e+01       1.03072e+01       6.03992e-04       4.21885e+02
  6.900      2.42594e+02       2.69289e+01       1.05024e+01       5.97510e-04       4.16012e+02
  7.000      2.41805e+02       2.75213e+01       1.06824e+01       5.91088e-04       4.10204e+02
  7.100      2.41009e+02       2.81001e+01       1.08468e+01       5.84733e-04       4.04458e+02
  7.200      2.40202e+02       2.86601e+01       1.09952e+01       5.78453e-04       3.98773e+02
  7.300      2.39380e+02       2.91980e+01       1.11293e+01       5.72252e-04       3.93149e+02
  7.400      2.38545e+02       2.97147e+01       1.12545e+01       5.66126e-04       3.87584e+02
  7.500      2.37699e+02       3.02116e+01       1.13771e+01       5.60071e-04       3.82078e+02
  7.600      2.36841e+02       3.06902e+01       1.15031e+01       5.54086e-04       3.76631e+02
  7.700      2.35974e+02       3.11524e+01       1.16376e+01       5.48165e-04       3.71243e+02
  7.800      2.35101e+02       3.16050e+01       1.17756e+01       5.42301e-04       3.65912e+02
  7.900      2.34226e+02       3.20576e+01       1.19057e+01       5.36484e-04       3.60639e+02
  8.000      2.33352e+02       3.25200e+01       1.20165e+01       5.30704e-04       3.55424e+02
  8.100      2.32485e+02       3.30018e+01       1.20968e+01       5.24951e-04       3.50264e+02
  8.200      2.31628e+02       3.35107e+01       1.21381e+01       5.19218e-04       3.45162e+02
  8.300      2.30780e+02       3.40443e+01       1.21457e+01       5.13506e-04       3.40115e+02
  8.400      2.29942e+02       3.45973e+01       1.21290e+01       5.07815e-04       3.35124e+02
  8.500      2.29112e+02       3.51644e+01       1.20975e+01       5.02148e-04       3.30188e+02
  8.600      2.28290e+02       3.57406e+01       1.20605e+01       4.96508e-04       3.25309e+02
  8.700      2.27476e+02       3.63199e+01       1.20264e+01       4.90895e-04       3.20484e+02
  8.800      2.26672e+02       3.68949e+01       1.19989e+01       4.85305e-04       3.15715e+02
  8.900      2.25880e+02       3.74575e+01       1.19801e+01       4.79734e-04       3.11000e+02
  9.000      2.25103e+02       3.79993e+01       1.19723e+01       4.74176e-04       3.06340e+02
  9.100      2.24344e+02       3.85123e+01       1.19777e+01       4.68627e-04       3.01734e+02
  9.200      2.23606e+02       3.89890e+01       1.19982e+01       4.63082e-04       2.97182e+02
  9.300      2.22892e+02       3.94322e+01       1.20320e+01       4.57535e-04       2.92685e+02
  9.400      2.22207e+02       3.98524e+01       1.20746e+01       4.51978e-04       2.88241e+02
  9.500      2.21555e+02       4.02599e+01       1.21214e+01       4.46405e-04       2.83853e+02
  9.600      2.20942e+02       4.06654e+01       1.21677e+01       4.40809e-04       2.79519e+02
  9.700      2.20372e+02       4.10793e+01       1.22091e+01       4.35184e-04       2.75240e+02
  9.800      2.19848e+02       4.15107e+01       1.22417e+01       4.29527e-04       2.71015e+02
  9.900      2.19370e+02       4.19622e+01       1.22667e+01       4.23840e-04       2.66847e+02
 10.000      2.18938e+02       4.24342e+01       1.22862e+01       4.18131e-04       2.62734e+02
 10.100      2.18550e+02       4.29274e+01       1.23026e+01       4.12406e-04       2.58677e+02
 10.200      2.18205e+02       4.34423e+01       1.23182e+01       4.06670e-04       2.54676e+02
 10.300      2.17901e+02       4.39793e+01       1.23352e+01       4.00929e-04       2.50732e+02
 10.400      2.17638e+02       4.45383e+01       1.23560e+01       3.95190e-04       2.46844e+02
 10.500      2.17415e+02       4.51126e+01       1.23831e+01       3.89455e-04       2.43013e+02
 10.600      2.17233e+02       4.56930e+01       1.24190e+01       3.83727e-04       2.39238e+02
 10.700      2.17091e+02       4.62704e+01       1.24665e+01       3.78009e-04       2.35519e+02
 10.800      2.16990e+02       4.68355e+01       1.25279e+01       3.72304e-04       2.31857e+02
 10.900      2.16929e+02       4.73790e+01       1.26061e+01       3.66615e-04       2.28249e+02
 11.000      2.16908e+02       4.78918e+01       1.27035e+01       3.60944e-04       2.24697e+02
 11.100      2.16925e+02       4.83658e+01       1.28215e+01       3.55298e-04       2.21200e+02
 11.200      2.16970e+02       4.87963e+01       1.29581e+01       3.49697e-04       2.17757e+02
 11.300      2.17029e+02       4.91794e+01       1.31103e+01       3.44160e-04       2.14368e+02
 11.400      2.17090e+02       4.95112e+01       1.32752e+01       3.38709e-04       2.11032e+02
 11.500      2.17142e+02       4.97876e+01       1.34501e+01       3.33360e-04       2.07749e+02
 11.600      2.17171e+02       5.00048e+01       1.36319e+01       3.28131e-04       2.04518e+02
 11.700      2.17165e+02       5.01588e+01       1.38180e+01       3.23038e-04       2.01338e+02
 11.800      2.17113e+02       5.02460e+01       1.40053e+01       3.18094e-04       1.98209e+02
 11.900      2.17012e+02       5.02700e+01       1.41905e+01       3.13298e-04       1.95129e+02
 12.000      2.16866e+02       5.02399e+01       1.43696e+01       3.08637e-04       1.92098e+02
 12.100      2.16682e+02       5.01650e+01       1.45387e+01       3.04099e-04       1.89112e+02
 12.200      2.16464e+02       5.00548e+01       1.46940e+01       2.99670e-04       1.86171e+02
 12.300      2.16218e+02       4.99186e+01       1.48316e+01       2.95340e-04       1.83272e+02
 12.400      2.15949e+02       4.97658e+01       1.49476e+01       2.91097e-04       1.80415e+02
 12.500      2.15663e+02       4.96057e+01       1.50380e+01       2.86932e-04       1.77597e+02
 12.600      2.15364e+02       4.94478e+01       1.50991e+01       2.82834e-04       1.74818e+02
 12.700      2.15057e+02       4.92981e+01       1.51287e+01       2.78795e-04       1.72077e+02
 12.800      2.14745e+02       4.91525e+01       1.51313e+01       2.74814e-04       1.69372e+02
 12.900      2.14427e+02       4.90045e+01       1.51124e+01       2.70888e-04       1.66706e+02
 13.000      2.14105e+02       4.88477e+01       1.50777e+01       2.67016e-04       1.64077e+02
 13.100      2.13781e+02       4.86757e+01       1.50327e+01       2.63198e-04       1.61485e+02
 13.200      2.13455e+02       4.84821e+01       1.49832e+01       2.59432e-04       1.58932e+02
 13.300      2.13129e+02       4.82605e+01       1.49346e+01       2.55716e-04       1.56417e+02
 13.400      2.12804e+02       4.80044e+01       1.48927e+01       2.52050e-04       1.53939e+02
 13.500      2.12481e+02       4.77075e+01       1.48630e+01       2.48432e-04       1.51499e+02
 13.600      2.12161e+02       4.73634e+01       1.48511e+01       2.44862e-04       1.49097e+02
 13.700      2.11846e+02       4.69732e+01       1.48589e+01       2.41336e-04       1.46732e+02
 13.800      2.11536e+02       4.65473e+01       1.48835e+01       2.37853e-04       1.44402e+02
 13.900      2.11232e+02       4.60973e+01       1.49216e+01       2.34409e-04       1.42107e+02
 14.000      2.10937e+02       4.56345e+01       1.49700e+01       2.31001e-04       1.39845e+02
 14.100      2.10650e+02       4.51704e+01       1.50253e+01       2.27625e-04       1.37615e+02
 14.200      2.10374e+02       4.47162e+01       1.50843e+01       2.24281e-04       1.35415e+02
 14.300      2.10109e+02       4.42834e+01       1.51436e+01       2.20964e-04       1.33244e+02
 14.400      2.09856e+02       4.38833e+01       1.52000e+01       2.17673e-04       1.31102e+02
 14.500      2.09617e+02       4.35275e+01       1.52503e+01       2.14405e-04       1.28986e+02
 14.600      2.09392e+02       4.32271e+01       1.52910e+01       2.11159e-04       1.26897e+02
 14.700      2.09184e+02       4.29937e+01       1.53190e+01       2.07931e-04       1.24833e+02
 14.800      2.08992e+02       4.28345e+01       1.53319e+01       2.04723e-04       1.22794e+02
 14.900      2.08816e+02       4.27433e+01       1.53308e+01       2.01536e-04       1.20781e+02
 15.000      2.08657e+02       4.27115e+01       1.53174e+01       1.98375e-04       1.18795e+02
 15.100      2.08512e+02       4.27304e+01       1.52933e+01       1.95242e-04       1.16839e+02
 15.200      2.08382e+02       4.27916e+01       1.52602e+01       1.92142e-04       1.14912e+02
 15.300      2.08267e+02       4.28862e+01       1.52197e+01       1.89076e-04       1.13016e+02
 15.400      2.08165e+02       4.30058e+01       1.51735e+01       1.86049e-04       1.11152e+02
 15.500      2.08076e+02       4.31415e+01       1.51233e+01       1.83062e-04       1.09320e+02
 15.600      2.08000e+02       4.32848e+01       1.50707e+01       1.80118e-04       1.07523e+02
 15.700      2.07936e+02       4.34272e+01       1.50174e+01       1.77220e-04       1.05760e+02
 15.800      2.07883e+02       4.35598e+01       1.49651e+01       1.74369e-04       1.04033e+02
 15.900      2.07842e+02       4.36741e+01       1.49153e+01       1.71567e-04       1.02341e+02
 16.000      2.07811e+02       4.37614e+01       1.48698e+01       1.68817e-04       1.00685e+02
 16.100      2.07790e+02       4.38135e+01       1.48302e+01       1.66119e-04       9.90660e+01
 16.200      2.07778e+02       4.38277e+01       1.47971e+01       1.63473e-04       9.74828e+01
 16.300      2.07776e+02       4.38057e+01       1.47703e+01       1.60877e-04       9.59337e+01
 16.400      2.07784e+02       4.37497e+01       1.47495e+01       1.58327e-04       9.44169e+01
 16.500      2.07801e+02       4.36615e+01       1.47347e+01       1.55823e-04       9.29310e+01
 16.600      2.07827e+02       4.35432e+01       1.47255e+01       1.53362e-04       9.14744e+01
 16.700      2.07861e+02       4.33967e+01       1.47219e+01       1.50941e-04       9.00456e+01
 16.800      2.07905e+02       4.32241e+01       1.47235e+01       1.48559e-04       8.86432e+01
 16.900      2.07957e+02       4.30273e+01       1.47302e+01       1.46214e-04       8.72659e+01
 17.000      2.08018e+02       4.28083e+01       1.47418e+01       1.43904e-04       8.59125e+01
 17.100      2.08087e+02       4.25690e+01       1.47580e+01       1.41628e-04       8.45816e+01
 17.200      2.08165e+02       4.23116e+01       1.47787e+01       1.39383e-04       8.32723e+01
 17.300      2.08251e+02       4.20378e+01       1.48036e+01       1.37169e-04       8.19833e+01
 17.400      2.08344e+02       4.17499e+01       1.48326e+01       1.34984e-04       8.07136e+01
 17.500      2.08446e+02       4.14496e+01       1.48655e+01       1.32827e-04       7.94623e+01
 17.600      2.08555e+02       4.11390e+01       1.49020e+01       1.30696e-04       7.82283e+01
 17.700      2.08672e+02       4.08202e+01       1.49419e+01       1.28590e-04       7.70108e+01
 17.800      2.08796e+02       4.04950e+01       1.49851e+01       1.26508e-04       7.58090e+01
 17.900      2.08928e+02       4.01655e+01       1.50313e+01       1.24448e-04       7.46219e+01
 18.000      2.09066e+02       3.98336e+01       1.50804e+01       1.22411e-04       7.34488e+01
 18.100      2.09212e+02       3.95013e+01       1.51320e+01       1.20394e-04       7.22891e+01
 18.200      2.09364e+02       3.91707e+01       1.51861e+01       1.18397e-04       7.11420e+01
 18.300      2.09524e+02       3.88437e+01       1.52424e+01       1.16419e-04       7.00068e+01
 18.400      2.09690e+02       3.85219e+01       1.53007e+01       1.14460e-04       6.88832e+01
 18.500      2.09861e+02       3.82058e+01       1.53608e+01       1.12521e-04       6.77715e+01
 18.600      2.10037e+02       3.78955e+01       1.54224e+01       1.10603e-04       6.66724e+01
 18.700      2.10216e+02       3.75912e+01       1.54853e+01       1.08709e-04       6.55863e+01
 18.800      2.10399e+02       3.72928e+01       1.55492e+01       1.06839e-04       6.45138e+01
 18.900      2.10582e+02       3.70006e+01       1.56139e+01       1.04994e-04       6.34553e+01
 19.000      2.10766e+02       3.67146e+01       1.56792e+01       1.03176e-04       6.24112e+01
 19.100      2.10950e+02       3.64349e+01       1.57449e+01       1.01386e-04       6.13820e+01
 19.200      2.11133e+02       3.61617e+01       1.58106e+01       9.96250e-05       6.03679e+01
 19.300      2.11313e+02       3.58950e+01       1.58761e+01       9.78936e-05       5.93693e+01
 19.400      2.11489e+02       3.56350e+01       1.59413e+01       9.61926e-05       5.83864e+01
 19.500      2.11661e+02       3.53817e+01       1.60058e+01       9.45229e-05       5.74196e+01
 19.600      2.11828e+02       3.51353e+01       1.60694e+01       9.28849e-05       5.64690e+01
 19.700      2.11988e+02       3.48958e+01       1.61319e+01       9.12794e-05       5.55349e+01
 19.800      2.12141e+02       3.46634e+01       1.61931e+01       8.97067e-05       5.46174e+01
 19.900      2.12285e+02       3.44382e+01       1.62527e+01       8.81673e-05       5.37166e+01
 20.000      2.12420e+02       3.42202e+01       1.63104e+01       8.66615e-05       5.28327e+01
 20.100      2.12544e+02       3.40097e+01       1.63660e+01       8.51897e-05       5.19658e+01
 20.200      2.12657e+02       3.38066e+01       1.64193e+01       8.37521e-05       5.11159e+01
 20.300      2.12757e+02       3.36111e+01       1.64701e+01       8.23489e-05       5.02832e+01
