# Data Source: NASA MERRA (version 2)
# Model Time = 2011-02-20 18:00:00
# Location = [  39.1026,  -84.5123 ]
# Fields = [ Z(km), T(K), U(m/s), V(m/s), R(g/cm3), P(mbar) ]
# Ground Height = 0.165
  0.000      2.77087e+02      -4.81004e+00       4.35669e+00       1.28088e-03       1.01860e+03
  0.100      2.76317e+02      -5.25918e+00       5.00587e+00       1.26864e-03       1.00607e+03
  0.200      2.75540e+02      -5.62372e+00       5.44340e+00       1.25658e-03       9.93702e+02
  0.300      2.74771e+02      -6.07663e+00       6.10202e+00       1.24459e-03       9.81472e+02
  0.400      2.74041e+02      -6.77314e+00       7.39921e+00       1.23248e-03       9.69346e+02
  0.500      2.73828e+02      -7.39009e+00       9.33970e+00       1.21817e-03       9.57345e+02
  0.600      2.75071e+02      -7.09626e+00       1.14799e+01       1.19772e-03       9.45546e+02
  0.700      2.77593e+02      -5.60311e+00       1.34046e+01       1.17232e-03       9.33980e+02
  0.800      2.79661e+02      -3.40101e+00       1.47695e+01       1.14950e-03       9.22621e+02
  0.900      2.80238e+02      -9.31792e-01       1.54065e+01       1.13323e-03       9.11440e+02
  1.000      2.80035e+02       1.58978e+00       1.55183e+01       1.12034e-03       9.00416e+02
  1.100      2.79843e+02       4.00640e+00       1.53266e+01       1.10755e-03       8.89530e+02
  1.200      2.79789e+02       6.28544e+00       1.49214e+01       1.09437e-03       8.78777e+02
  1.300      2.79813e+02       8.42921e+00       1.43560e+01       1.08106e-03       8.68156e+02
  1.400      2.79852e+02       1.04400e+01       1.36834e+01       1.06784e-03       8.57667e+02
  1.500      2.79849e+02       1.23200e+01       1.29569e+01       1.05496e-03       8.47307e+02
  1.600      2.79760e+02       1.40638e+01       1.22221e+01       1.04255e-03       8.37075e+02
  1.700      2.79581e+02       1.56514e+01       1.15103e+01       1.03062e-03       8.26964e+02
  1.800      2.79310e+02       1.70612e+01       1.08515e+01       1.01915e-03       8.16968e+02
  1.900      2.78947e+02       1.82715e+01       1.02757e+01       1.00812e-03       8.07081e+02
  2.000      2.78489e+02       1.92611e+01       9.81242e+00       9.97541e-04       7.97297e+02
  2.100      2.77942e+02       2.00249e+01       9.47563e+00       9.87364e-04       7.87612e+02
  2.200      2.77322e+02       2.05879e+01       9.25044e+00       9.77523e-04       7.78024e+02
  2.300      2.76647e+02       2.09780e+01       9.11899e+00       9.67948e-04       7.68530e+02
  2.400      2.75936e+02       2.12232e+01       9.06341e+00       9.58572e-04       7.59128e+02
  2.500      2.75205e+02       2.13515e+01       9.06586e+00       9.49326e-04       7.49815e+02
  2.600      2.74473e+02       2.13876e+01       9.10609e+00       9.40151e-04       7.40592e+02
  2.700      2.73754e+02       2.13440e+01       9.15497e+00       9.30993e-04       7.31458e+02
  2.800      2.73064e+02       2.12302e+01       9.18128e+00       9.21807e-04       7.22415e+02
  2.900      2.72418e+02       2.10558e+01       9.15377e+00       9.12544e-04       7.13464e+02
  3.000      2.71831e+02       2.08303e+01       9.04122e+00       9.03162e-04       7.04606e+02
  3.100      2.71317e+02       2.05635e+01       8.81332e+00       8.93619e-04       6.95842e+02
  3.200      2.70872e+02       2.02686e+01       8.46427e+00       8.83934e-04       6.87173e+02
  3.300      2.70474e+02       1.99626e+01       8.01429e+00       8.74187e-04       6.78596e+02
  3.400      2.70098e+02       1.96624e+01       7.48488e+00       8.64456e-04       6.70111e+02
  3.500      2.69721e+02       1.93854e+01       6.89755e+00       8.54821e-04       6.61717e+02
  3.600      2.69319e+02       1.91487e+01       6.27380e+00       8.45353e-04       6.53413e+02
  3.700      2.68870e+02       1.89693e+01       5.63478e+00       8.36121e-04       6.45197e+02
  3.800      2.68365e+02       1.88644e+01       4.99602e+00       8.27138e-04       6.37069e+02
  3.900      2.67813e+02       1.88511e+01       4.36859e+00       8.18379e-04       6.29026e+02
  4.000      2.67221e+02       1.89464e+01       3.76341e+00       8.09816e-04       6.21068e+02
  4.100      2.66596e+02       1.91675e+01       3.19143e+00       8.01424e-04       6.13193e+02
  4.200      2.65944e+02       1.95315e+01       2.66356e+00       7.93177e-04       6.05400e+02
  4.300      2.65274e+02       2.00551e+01       2.19063e+00       7.85050e-04       5.97687e+02
  4.400      2.64590e+02       2.07397e+01       1.77497e+00       7.77027e-04       5.90053e+02
  4.500      2.63896e+02       2.15601e+01       1.40451e+00       7.69094e-04       5.82498e+02
  4.600      2.63194e+02       2.24886e+01       1.06582e+00       7.61245e-04       5.75020e+02
  4.700      2.62488e+02       2.34974e+01       7.45446e-01       7.53469e-04       5.67618e+02
  4.800      2.61779e+02       2.45588e+01       4.29952e-01       7.45757e-04       5.60293e+02
  4.900      2.61072e+02       2.56450e+01       1.05896e-01       7.38102e-04       5.53042e+02
  5.000      2.60367e+02       2.67289e+01      -2.39480e-01       7.30496e-04       5.45866e+02
  5.100      2.59666e+02       2.77934e+01      -6.07711e-01       7.22938e-04       5.38763e+02
  5.200      2.58965e+02       2.88291e+01      -9.91160e-01       7.15436e-04       5.31734e+02
  5.300      2.58263e+02       2.98272e+01      -1.38192e+00       7.07997e-04       5.24777e+02
  5.400      2.57556e+02       3.07788e+01      -1.77209e+00       7.00628e-04       5.17893e+02
  5.500      2.56841e+02       3.16748e+01      -2.15375e+00       6.93335e-04       5.11081e+02
  5.600      2.56117e+02       3.25064e+01      -2.51902e+00       6.86124e-04       5.04341e+02
  5.700      2.55381e+02       3.32648e+01      -2.86007e+00       6.79003e-04       4.97671e+02
  5.800      2.54633e+02       3.39461e+01      -3.17458e+00       6.71970e-04       4.91073e+02
  5.900      2.53874e+02       3.45542e+01      -3.46831e+00       6.65015e-04       4.84543e+02
  6.000      2.53108e+02       3.50935e+01      -3.74767e+00       6.58130e-04       4.78080e+02
  6.100      2.52339e+02       3.55684e+01      -4.01907e+00       6.51305e-04       4.71683e+02
  6.200      2.51568e+02       3.59832e+01      -4.28894e+00       6.44529e-04       4.65349e+02
  6.300      2.50798e+02       3.63424e+01      -4.56369e+00       6.37795e-04       4.59079e+02
  6.400      2.50033e+02       3.66504e+01      -4.84973e+00       6.31093e-04       4.52869e+02
  6.500      2.49275e+02       3.69115e+01      -5.15327e+00       6.24416e-04       4.46720e+02
  6.600      2.48525e+02       3.71301e+01      -5.47637e+00       6.17765e-04       4.40632e+02
  6.700      2.47781e+02       3.73102e+01      -5.81728e+00       6.11150e-04       4.34608e+02
  6.800      2.47040e+02       3.74561e+01      -6.17415e+00       6.04581e-04       4.28651e+02
  6.900      2.46300e+02       3.75718e+01      -6.54510e+00       5.98067e-04       4.22763e+02
  7.000      2.45560e+02       3.76615e+01      -6.92826e+00       5.91617e-04       4.16947e+02
  7.100      2.44818e+02       3.77293e+01      -7.32175e+00       5.85240e-04       4.11205e+02
  7.200      2.44070e+02       3.77793e+01      -7.72371e+00       5.78945e-04       4.05540e+02
  7.300      2.43316e+02       3.78158e+01      -8.13227e+00       5.72739e-04       3.99953e+02
  7.400      2.42553e+02       3.78436e+01      -8.54569e+00       5.66627e-04       3.94444e+02
  7.500      2.41782e+02       3.78716e+01      -8.96282e+00       5.60594e-04       3.89004e+02
  7.600      2.41003e+02       3.79094e+01      -9.38264e+00       5.54625e-04       3.83622e+02
  7.700      2.40217e+02       3.79663e+01      -9.80412e+00       5.48703e-04       3.78289e+02
  7.800      2.39424e+02       3.80522e+01      -1.02263e+01       5.42814e-04       3.72993e+02
  7.900      2.38626e+02       3.81764e+01      -1.06480e+01       5.36942e-04       3.67728e+02
  8.000      2.37821e+02       3.83486e+01      -1.10684e+01       5.31074e-04       3.62483e+02
  8.100      2.37012e+02       3.85784e+01      -1.14863e+01       5.25196e-04       3.57252e+02
  8.200      2.36198e+02       3.88753e+01      -1.19008e+01       5.19296e-04       3.52026e+02
  8.300      2.35381e+02       3.92482e+01      -1.23112e+01       5.13363e-04       3.46799e+02
  8.400      2.34562e+02       3.96966e+01      -1.27209e+01       5.07415e-04       3.41588e+02
  8.500      2.33744e+02       4.02125e+01      -1.31365e+01       5.01486e-04       3.36419e+02
  8.600      2.32930e+02       4.07882e+01      -1.35648e+01       4.95611e-04       3.31320e+02
  8.700      2.32123e+02       4.14156e+01      -1.40125e+01       4.89823e-04       3.26317e+02
  8.800      2.31326e+02       4.20870e+01      -1.44863e+01       4.84153e-04       3.21432e+02
  8.900      2.30542e+02       4.27944e+01      -1.49929e+01       4.78630e-04       3.16688e+02
  9.000      2.29774e+02       4.35298e+01      -1.55389e+01       4.73282e-04       3.12107e+02
  9.100      2.29025e+02       4.42854e+01      -1.61312e+01       4.68136e-04       3.07707e+02
  9.200      2.28298e+02       4.50532e+01      -1.67764e+01       4.63218e-04       3.03507e+02
  9.300      2.27595e+02       4.58253e+01      -1.74812e+01       4.58551e-04       2.99525e+02
  9.400      2.26919e+02       4.65952e+01      -1.82479e+01       4.54146e-04       2.95767e+02
  9.500      2.26269e+02       4.73602e+01      -1.90662e+01       4.49978e-04       2.92211e+02
  9.600      2.25641e+02       4.81183e+01      -1.99239e+01       4.46014e-04       2.88834e+02
  9.700      2.25034e+02       4.88673e+01      -2.08086e+01       4.42225e-04       2.85610e+02
  9.800      2.24446e+02       4.96052e+01      -2.17079e+01       4.38583e-04       2.82517e+02
  9.900      2.23874e+02       5.03299e+01      -2.26096e+01       4.35060e-04       2.79534e+02
 10.000      2.23317e+02       5.10394e+01      -2.35013e+01       4.31628e-04       2.76639e+02
 10.100      2.22772e+02       5.17317e+01      -2.43708e+01       4.28263e-04       2.73813e+02
 10.200      2.22238e+02       5.24047e+01      -2.52055e+01       4.24939e-04       2.71036e+02
 10.300      2.21712e+02       5.30564e+01      -2.59933e+01       4.21632e-04       2.68291e+02
 10.400      2.21193e+02       5.36846e+01      -2.67218e+01       4.18319e-04       2.65558e+02
 10.500      2.20677e+02       5.42873e+01      -2.73786e+01       4.14976e-04       2.62822e+02
 10.600      2.20163e+02       5.48625e+01      -2.79515e+01       4.11583e-04       2.60067e+02
 10.700      2.19650e+02       5.54081e+01      -2.84280e+01       4.08118e-04       2.57276e+02
 10.800      2.19134e+02       5.59221e+01      -2.87960e+01       4.04561e-04       2.54434e+02
 10.900      2.18614e+02       5.64024e+01      -2.90430e+01       4.00892e-04       2.51528e+02
 11.000      2.18087e+02       5.68470e+01      -2.91571e+01       3.97094e-04       2.48545e+02
 11.100      2.17555e+02       5.72529e+01      -2.91376e+01       3.93156e-04       2.45481e+02
 11.200      2.17022e+02       5.76166e+01      -2.89954e+01       3.89077e-04       2.42338e+02
 11.300      2.16492e+02       5.79343e+01      -2.87416e+01       3.84854e-04       2.39123e+02
 11.400      2.15970e+02       5.82025e+01      -2.83877e+01       3.80487e-04       2.35838e+02
 11.500      2.15458e+02       5.84175e+01      -2.79449e+01       3.75976e-04       2.32490e+02
 11.600      2.14962e+02       5.85756e+01      -2.74248e+01       3.71319e-04       2.29082e+02
 11.700      2.14487e+02       5.86731e+01      -2.68385e+01       3.66517e-04       2.25619e+02
 11.800      2.14035e+02       5.87064e+01      -2.61974e+01       3.61570e-04       2.22105e+02
 11.900      2.13611e+02       5.86718e+01      -2.55129e+01       3.56480e-04       2.18545e+02
 12.000      2.13220e+02       5.85657e+01      -2.47962e+01       3.51248e-04       2.14943e+02
 12.100      2.12866e+02       5.83843e+01      -2.40588e+01       3.45876e-04       2.11304e+02
 12.200      2.12552e+02       5.81241e+01      -2.33120e+01       3.40367e-04       2.07632e+02
 12.300      2.12284e+02       5.77814e+01      -2.25671e+01       3.34723e-04       2.03931e+02
 12.400      2.12065e+02       5.73524e+01      -2.18354e+01       3.28948e-04       2.00206e+02
 12.500      2.11898e+02       5.68355e+01      -2.11267e+01       3.23050e-04       1.96462e+02
 12.600      2.11780e+02       5.62378e+01      -2.04424e+01       3.17059e-04       1.92712e+02
 12.700      2.11706e+02       5.55691e+01      -1.97818e+01       3.11008e-04       1.88967e+02
 12.800      2.11670e+02       5.48393e+01      -1.91441e+01       3.04928e-04       1.85241e+02
 12.900      2.11667e+02       5.40581e+01      -1.85285e+01       2.98848e-04       1.81545e+02
 13.000      2.11691e+02       5.32355e+01      -1.79343e+01       2.92797e-04       1.77890e+02
 13.100      2.11738e+02       5.23811e+01      -1.73607e+01       2.86800e-04       1.74285e+02
 13.200      2.11802e+02       5.15050e+01      -1.68068e+01       2.80880e-04       1.70739e+02
 13.300      2.11878e+02       5.06167e+01      -1.62720e+01       2.75060e-04       1.67261e+02
 13.400      2.11960e+02       4.97263e+01      -1.57553e+01       2.69359e-04       1.63858e+02
 13.500      2.12044e+02       4.88435e+01      -1.52561e+01       2.63795e-04       1.60536e+02
 13.600      2.12123e+02       4.79781e+01      -1.47735e+01       2.58385e-04       1.57303e+02
 13.700      2.12194e+02       4.71399e+01      -1.43068e+01       2.53144e-04       1.54164e+02
 13.800      2.12250e+02       4.63388e+01      -1.38552e+01       2.48086e-04       1.51123e+02
 13.900      2.12286e+02       4.55841e+01      -1.34179e+01       2.43221e-04       1.48185e+02
 14.000      2.12301e+02       4.48776e+01      -1.29944e+01       2.38548e-04       1.45348e+02
 14.100      2.12297e+02       4.42156e+01      -1.25843e+01       2.34054e-04       1.42607e+02
 14.200      2.12274e+02       4.35944e+01      -1.21874e+01       2.29730e-04       1.39957e+02
 14.300      2.12234e+02       4.30103e+01      -1.18032e+01       2.25563e-04       1.37393e+02
 14.400      2.12179e+02       4.24595e+01      -1.14315e+01       2.21545e-04       1.34911e+02
 14.500      2.12109e+02       4.19384e+01      -1.10719e+01       2.17667e-04       1.32505e+02
 14.600      2.12026e+02       4.14431e+01      -1.07241e+01       2.13919e-04       1.30173e+02
 14.700      2.11932e+02       4.09701e+01      -1.03877e+01       2.10294e-04       1.27910e+02
 14.800      2.11827e+02       4.05154e+01      -1.00623e+01       2.06783e-04       1.25712e+02
 14.900      2.11713e+02       4.00754e+01      -9.74777e+00       2.03379e-04       1.23576e+02
 15.000      2.11591e+02       3.96464e+01      -9.44362e+00       2.00075e-04       1.21499e+02
 15.100      2.11463e+02       3.92246e+01      -9.14954e+00       1.96865e-04       1.19477e+02
 15.200      2.11330e+02       3.88062e+01      -8.86521e+00       1.93742e-04       1.17508e+02
 15.300      2.11193e+02       3.83877e+01      -8.59029e+00       1.90700e-04       1.15588e+02
 15.400      2.11054e+02       3.79651e+01      -8.32443e+00       1.87733e-04       1.13715e+02
 15.500      2.10914e+02       3.75348e+01      -8.06730e+00       1.84836e-04       1.11886e+02
 15.600      2.10774e+02       3.70931e+01      -7.81855e+00       1.82004e-04       1.10098e+02
 15.700      2.10636e+02       3.66362e+01      -7.57787e+00       1.79232e-04       1.08350e+02
 15.800      2.10500e+02       3.61604e+01      -7.34490e+00       1.76516e-04       1.06640e+02
 15.900      2.10369e+02       3.56620e+01      -7.11931e+00       1.73850e-04       1.04964e+02
 16.000      2.10244e+02       3.51371e+01      -6.90076e+00       1.71231e-04       1.03321e+02
 16.100      2.10125e+02       3.45822e+01      -6.68891e+00       1.68654e-04       1.01708e+02
 16.200      2.10015e+02       3.39934e+01      -6.48343e+00       1.66116e-04       1.00125e+02
 16.300      2.09914e+02       3.33678e+01      -6.28401e+00       1.63614e-04       9.85698e+01
 16.400      2.09823e+02       3.27065e+01      -6.09051e+00       1.61145e-04       9.70405e+01
 16.500      2.09741e+02       3.20117e+01      -5.90285e+00       1.58710e-04       9.55366e+01
 16.600      2.09669e+02       3.12859e+01      -5.72093e+00       1.56306e-04       9.40572e+01
 16.700      2.09606e+02       3.05313e+01      -5.54468e+00       1.53933e-04       9.26016e+01
 16.800      2.09552e+02       2.97502e+01      -5.37400e+00       1.51591e-04       9.11688e+01
 16.900      2.09507e+02       2.89451e+01      -5.20882e+00       1.49277e-04       8.97582e+01
 17.000      2.09471e+02       2.81181e+01      -5.04903e+00       1.46992e-04       8.83689e+01
 17.100      2.09444e+02       2.72717e+01      -4.89456e+00       1.44734e-04       8.70003e+01
 17.200      2.09425e+02       2.64081e+01      -4.74532e+00       1.42504e-04       8.56517e+01
 17.300      2.09415e+02       2.55298e+01      -4.60123e+00       1.40299e-04       8.43225e+01
 17.400      2.09413e+02       2.46389e+01      -4.46219e+00       1.38119e-04       8.30119e+01
 17.500      2.09420e+02       2.37379e+01      -4.32812e+00       1.35964e-04       8.17195e+01
 17.600      2.09435e+02       2.28290e+01      -4.19893e+00       1.33834e-04       8.04446e+01
 17.700      2.09458e+02       2.19146e+01      -4.07454e+00       1.31726e-04       7.91866e+01
 17.800      2.09489e+02       2.09971e+01      -3.95487e+00       1.29642e-04       7.79452e+01
 17.900      2.09528e+02       2.00786e+01      -3.83981e+00       1.27580e-04       7.67196e+01
 18.000      2.09574e+02       1.91616e+01      -3.72930e+00       1.25540e-04       7.55096e+01
 18.100      2.09629e+02       1.82484e+01      -3.62323e+00       1.23521e-04       7.43145e+01
 18.200      2.09690e+02       1.73413e+01      -3.52153e+00       1.21523e-04       7.31340e+01
 18.300      2.09759e+02       1.64427e+01      -3.42411e+00       1.19546e-04       7.19678e+01
 18.400      2.09836e+02       1.55548e+01      -3.33088e+00       1.17588e-04       7.08152e+01
 18.500      2.09919e+02       1.46800e+01      -3.24176e+00       1.15651e-04       6.96760e+01
 18.600      2.10010e+02       1.38200e+01      -3.15667e+00       1.13733e-04       6.85501e+01
 18.700      2.10107e+02       1.29759e+01      -3.07559e+00       1.11836e-04       6.74378e+01
 18.800      2.10210e+02       1.21484e+01      -2.99850e+00       1.09961e-04       6.63397e+01
 18.900      2.10319e+02       1.13382e+01      -2.92535e+00       1.08109e-04       6.52561e+01
 19.000      2.10433e+02       1.05463e+01      -2.85613e+00       1.06281e-04       6.41873e+01
 19.100      2.10552e+02       9.77341e+00      -2.79080e+00       1.04477e-04       6.31336e+01
 19.200      2.10675e+02       9.02036e+00      -2.72935e+00       1.02698e-04       6.20953e+01
 19.300      2.10802e+02       8.28798e+00      -2.67173e+00       1.00946e-04       6.10727e+01
 19.400      2.10933e+02       7.57705e+00      -2.61793e+00       9.92205e-05       6.00659e+01
 19.500      2.11067e+02       6.88839e+00      -2.56792e+00       9.75221e-05       5.90753e+01
 19.600      2.11204e+02       6.22282e+00      -2.52166e+00       9.58516e-05       5.81009e+01
 19.700      2.11343e+02       5.58114e+00      -2.47913e+00       9.42091e-05       5.71430e+01
 19.800      2.11484e+02       4.96419e+00      -2.44031e+00       9.25953e-05       5.62016e+01
 19.900      2.11626e+02       4.37273e+00      -2.40516e+00       9.10105e-05       5.52768e+01
 20.000      2.11770e+02       3.80761e+00      -2.37366e+00       8.94548e-05       5.43688e+01
 20.100      2.11914e+02       3.26962e+00      -2.34578e+00       8.79286e-05       5.34776e+01
 20.200      2.12058e+02       2.75959e+00      -2.32149e+00       8.64322e-05       5.26032e+01
 20.300      2.12202e+02       2.27833e+00      -2.30076e+00       8.49655e-05       5.17458e+01
