# Data Source: NASA MERRA (version 2)
# Model Time = 2011-05-12 18:00:00
# Location = [  39.1026,  -84.5123 ]
# Fields = [ Z(km), T(K), U(m/s), V(m/s), R(g/cm3), P(mbar) ]
# Ground Height = 0.165
  0.000      3.02902e+02       3.51341e+00       2.05650e+00       1.16401e-03       1.01191e+03
  0.100      3.02242e+02       3.57891e+00       2.07890e+00       1.15331e-03       1.00042e+03
  0.200      3.01583e+02       3.64389e+00       2.09984e+00       1.14271e-03       9.89068e+02
  0.300      3.00884e+02       3.72236e+00       2.15877e+00       1.13240e-03       9.77873e+02
  0.400      3.00106e+02       3.82086e+00       2.28665e+00       1.12255e-03       9.66860e+02
  0.500      2.99241e+02       3.87875e+00       2.43788e+00       1.11315e-03       9.55995e+02
  0.600      2.98296e+02       3.80346e+00       2.52911e+00       1.10408e-03       9.45217e+02
  0.700      2.97300e+02       3.60942e+00       2.55747e+00       1.09523e-03       9.34504e+02
  0.800      2.96305e+02       3.43512e+00       2.61358e+00       1.08641e-03       9.23874e+02
  0.900      2.95346e+02       3.38127e+00       2.76906e+00       1.07751e-03       9.13341e+02
  1.000      2.94403e+02       3.41825e+00       3.02510e+00       1.06860e-03       9.02900e+02
  1.100      2.93447e+02       3.49627e+00       3.36868e+00       1.05979e-03       8.92544e+02
  1.200      2.92472e+02       3.59897e+00       3.77317e+00       1.05108e-03       8.82271e+02
  1.300      2.91485e+02       3.72860e+00       4.20433e+00       1.04246e-03       8.72079e+02
  1.400      2.90491e+02       3.88762e+00       4.62783e+00       1.03390e-03       8.61970e+02
  1.500      2.89499e+02       4.07850e+00       5.00935e+00       1.02537e-03       8.51943e+02
  1.600      2.88516e+02       4.30494e+00       5.31848e+00       1.01686e-03       8.41997e+02
  1.700      2.87573e+02       4.57968e+00       5.55318e+00       1.00824e-03       8.32135e+02
  1.800      2.86709e+02       4.91943e+00       5.72393e+00       9.99397e-04       8.22360e+02
  1.900      2.85965e+02       5.34094e+00       5.84128e+00       9.90195e-04       8.12673e+02
  2.000      2.85380e+02       5.86094e+00       5.91575e+00       9.80510e-04       8.03078e+02
  2.100      2.84988e+02       6.49252e+00       5.95764e+00       9.70243e-04       7.93577e+02
  2.200      2.84758e+02       7.20795e+00       5.97444e+00       9.59519e-04       7.84171e+02
  2.300      2.84617e+02       7.95386e+00       5.97187e+00       9.48596e-04       7.74860e+02
  2.400      2.84493e+02       8.67653e+00       5.95563e+00       9.37723e-04       7.65646e+02
  2.500      2.84314e+02       9.32217e+00       5.93141e+00       9.27140e-04       7.56529e+02
  2.600      2.84007e+02       9.83733e+00       5.90486e+00       9.17075e-04       7.47509e+02
  2.700      2.83536e+02       1.01940e+01       5.87629e+00       9.07633e-04       7.38585e+02
  2.800      2.82926e+02       1.04102e+01       5.83644e+00       8.98712e-04       7.29753e+02
  2.900      2.82211e+02       1.05085e+01       5.77503e+00       8.90192e-04       7.21008e+02
  3.000      2.81424e+02       1.05119e+01       5.68178e+00       8.81960e-04       7.12347e+02
  3.100      2.80597e+02       1.04430e+01       5.54642e+00       8.73903e-04       7.03766e+02
  3.200      2.79763e+02       1.03241e+01       5.35919e+00       8.65915e-04       6.95260e+02
  3.300      2.78940e+02       1.01669e+01       5.11967e+00       8.57939e-04       6.86829e+02
  3.400      2.78134e+02       9.97444e+00       4.83543e+00       8.49957e-04       6.78475e+02
  3.500      2.77354e+02       9.74934e+00       4.51431e+00       8.41952e-04       6.70198e+02
  3.600      2.76603e+02       9.49425e+00       4.16414e+00       8.33908e-04       6.61999e+02
  3.700      2.75890e+02       9.21184e+00       3.79277e+00       8.25810e-04       6.53881e+02
  3.800      2.75220e+02       8.90499e+00       3.40827e+00       8.17644e-04       6.45843e+02
  3.900      2.74591e+02       8.58153e+00       3.02390e+00       8.09422e-04       6.37886e+02
  4.000      2.73991e+02       8.25400e+00       2.65789e+00       8.01179e-04       6.30009e+02
  4.100      2.73409e+02       7.93513e+00       2.32864e+00       7.92947e-04       6.22213e+02
  4.200      2.72835e+02       7.63764e+00       2.05456e+00       7.84761e-04       6.14497e+02
  4.300      2.72257e+02       7.37425e+00       1.85405e+00       7.76652e-04       6.06859e+02
  4.400      2.71665e+02       7.15769e+00       1.74553e+00       7.68652e-04       5.99300e+02
  4.500      2.71048e+02       7.00025e+00       1.74098e+00       7.60783e-04       5.91819e+02
  4.600      2.70405e+02       6.91289e+00       1.83297e+00       7.53051e-04       5.84415e+02
  4.700      2.69736e+02       6.90634e+00       2.01039e+00       7.45453e-04       5.77086e+02
  4.800      2.69037e+02       6.99130e+00       2.26212e+00       7.37989e-04       5.69829e+02
  4.900      2.68310e+02       7.17849e+00       2.57706e+00       7.30661e-04       5.62645e+02
  5.000      2.67553e+02       7.47863e+00       2.94410e+00       7.23466e-04       5.55532e+02
  5.100      2.66764e+02       7.90235e+00       3.35210e+00       7.16404e-04       5.48488e+02
  5.200      2.65947e+02       8.44773e+00       3.78739e+00       7.09466e-04       5.41512e+02
  5.300      2.65113e+02       9.08594e+00       4.23080e+00       7.02618e-04       5.34605e+02
  5.400      2.64276e+02       9.78471e+00       4.66245e+00       6.95828e-04       5.27766e+02
  5.500      2.63448e+02       1.05118e+01       5.06248e+00       6.89061e-04       5.20997e+02
  5.600      2.62643e+02       1.12348e+01       5.41102e+00       6.82285e-04       5.14296e+02
  5.700      2.61872e+02       1.19216e+01       5.68819e+00       6.75469e-04       5.07665e+02
  5.800      2.61150e+02       1.25398e+01       5.87412e+00       6.68582e-04       5.01103e+02
  5.900      2.60487e+02       1.30613e+01       5.95233e+00       6.61601e-04       4.94610e+02
  6.000      2.59877e+02       1.34856e+01       5.92898e+00       6.54540e-04       4.88186e+02
  6.100      2.59310e+02       1.38233e+01       5.81955e+00       6.47431e-04       4.81830e+02
  6.200      2.58774e+02       1.40854e+01       5.63955e+00       6.40304e-04       4.75542e+02
  6.300      2.58259e+02       1.42826e+01       5.40447e+00       6.33186e-04       4.69320e+02
  6.400      2.57754e+02       1.44258e+01       5.12982e+00       6.26106e-04       4.63164e+02
  6.500      2.57246e+02       1.45257e+01       4.83111e+00       6.19092e-04       4.57073e+02
  6.600      2.56726e+02       1.45933e+01       4.52384e+00       6.12168e-04       4.51047e+02
  6.700      2.56183e+02       1.46381e+01       4.22229e+00       6.05357e-04       4.45085e+02
  6.800      2.55615e+02       1.46630e+01       3.93248e+00       5.98663e-04       4.39188e+02
  6.900      2.55023e+02       1.46677e+01       3.65692e+00       5.92086e-04       4.33357e+02
  7.000      2.54410e+02       1.46518e+01       3.39817e+00       5.85621e-04       4.27595e+02
  7.100      2.53776e+02       1.46151e+01       3.15873e+00       5.79268e-04       4.21902e+02
  7.200      2.53122e+02       1.45572e+01       2.94113e+00       5.73023e-04       4.16279e+02
  7.300      2.52451e+02       1.44779e+01       2.74791e+00       5.66884e-04       4.10727e+02
  7.400      2.51763e+02       1.43769e+01       2.58158e+00       5.60850e-04       4.05248e+02
  7.500      2.51061e+02       1.42538e+01       2.44468e+00       5.54917e-04       3.99842e+02
  7.600      2.50344e+02       1.41088e+01       2.33908e+00       5.49082e-04       3.94509e+02
  7.700      2.49615e+02       1.39427e+01       2.26423e+00       5.43330e-04       3.89239e+02
  7.800      2.48875e+02       1.37571e+01       2.21905e+00       5.37646e-04       3.84025e+02
  7.900      2.48124e+02       1.35531e+01       2.20244e+00       5.32014e-04       3.78856e+02
  8.000      2.47364e+02       1.33321e+01       2.21333e+00       5.26421e-04       3.73724e+02
  8.100      2.46595e+02       1.30954e+01       2.25062e+00       5.20851e-04       3.68622e+02
  8.200      2.45820e+02       1.28444e+01       2.31321e+00       5.15293e-04       3.63542e+02
  8.300      2.45039e+02       1.25803e+01       2.40004e+00       5.09733e-04       3.58476e+02
  8.400      2.44253e+02       1.23044e+01       2.50999e+00       5.04159e-04       3.53419e+02
  8.500      2.43463e+02       1.20182e+01       2.64200e+00       4.98560e-04       3.48363e+02
  8.600      2.42670e+02       1.17244e+01       2.79482e+00       4.92943e-04       3.43316e+02
  8.700      2.41873e+02       1.14286e+01       2.96707e+00       4.87344e-04       3.38301e+02
  8.800      2.41070e+02       1.11363e+01       3.15729e+00       4.81800e-04       3.33343e+02
  8.900      2.40260e+02       1.08533e+01       3.36406e+00       4.76346e-04       3.28463e+02
  9.000      2.39444e+02       1.05851e+01       3.58594e+00       4.71017e-04       3.23685e+02
  9.100      2.38619e+02       1.03373e+01       3.82151e+00       4.65844e-04       3.19027e+02
  9.200      2.37784e+02       1.01157e+01       4.06933e+00       4.60859e-04       3.14509e+02
  9.300      2.36940e+02       9.92584e+00       4.32796e+00       4.56090e-04       3.10149e+02
  9.400      2.36083e+02       9.77336e+00       4.59598e+00       4.51566e-04       3.05963e+02
  9.500      2.35215e+02       9.66390e+00       4.87195e+00       4.47315e-04       3.01967e+02
  9.600      2.34332e+02       9.60290e+00       5.15439e+00       4.43362e-04       2.98176e+02
  9.700      2.33438e+02       9.59055e+00       5.44049e+00       4.39702e-04       2.94585e+02
  9.800      2.32533e+02       9.62166e+00       5.72609e+00       4.36299e-04       2.91172e+02
  9.900      2.31621e+02       9.69081e+00       6.00696e+00       4.33116e-04       2.87915e+02
 10.000      2.30706e+02       9.79255e+00       6.27888e+00       4.30120e-04       2.84793e+02
 10.100      2.29789e+02       9.92146e+00       6.53762e+00       4.27277e-04       2.81786e+02
 10.200      2.28873e+02       1.00721e+01       6.77896e+00       4.24553e-04       2.78875e+02
 10.300      2.27962e+02       1.02390e+01       6.99867e+00       4.21918e-04       2.76040e+02
 10.400      2.27058e+02       1.04168e+01       7.19253e+00       4.19339e-04       2.73266e+02
 10.500      2.26165e+02       1.06000e+01       7.35631e+00       4.16787e-04       2.70533e+02
 10.600      2.25284e+02       1.07832e+01       7.48579e+00       4.14231e-04       2.67827e+02
 10.700      2.24418e+02       1.09610e+01       7.57674e+00       4.11642e-04       2.65131e+02
 10.800      2.23572e+02       1.11279e+01       7.62493e+00       4.08991e-04       2.62430e+02
 10.900      2.22746e+02       1.12785e+01       7.62615e+00       4.06252e-04       2.59709e+02
 11.000      2.21945e+02       1.14073e+01       7.57616e+00       4.03396e-04       2.56956e+02
 11.100      2.21171e+02       1.15089e+01       7.47074e+00       4.00397e-04       2.54157e+02
 11.200      2.20427e+02       1.15780e+01       7.30566e+00       3.97230e-04       2.51298e+02
 11.300      2.19716e+02       1.16092e+01       7.07701e+00       3.93872e-04       2.48370e+02
 11.400      2.19037e+02       1.16020e+01       6.78639e+00       3.90316e-04       2.45367e+02
 11.500      2.18388e+02       1.15597e+01       6.44022e+00       3.86569e-04       2.42291e+02
 11.600      2.17766e+02       1.14856e+01       6.04506e+00       3.82640e-04       2.39145e+02
 11.700      2.17169e+02       1.13833e+01       5.60751e+00       3.78536e-04       2.35932e+02
 11.800      2.16594e+02       1.12562e+01       5.13411e+00       3.74266e-04       2.32653e+02
 11.900      2.16038e+02       1.11076e+01       4.63146e+00       3.69839e-04       2.29311e+02
 12.000      2.15500e+02       1.09411e+01       4.10612e+00       3.65263e-04       2.25909e+02
 12.100      2.14975e+02       1.07601e+01       3.56466e+00       3.60548e-04       2.22451e+02
 12.200      2.14462e+02       1.05680e+01       3.01368e+00       3.55703e-04       2.18938e+02
 12.300      2.13958e+02       1.03683e+01       2.45972e+00       3.50736e-04       2.15373e+02
 12.400      2.13461e+02       1.01643e+01       1.90938e+00       3.45657e-04       2.11761e+02
 12.500      2.12967e+02       9.95958e+00       1.36921e+00       3.40475e-04       2.08104e+02
 12.600      2.12475e+02       9.75750e+00       8.45799e-01       3.35199e-04       2.04405e+02
 12.700      2.11981e+02       9.56152e+00       3.45724e-01       3.29837e-04       2.00668e+02
 12.800      2.11483e+02       9.37469e+00      -1.25203e-01       3.24401e-04       1.96897e+02
 12.900      2.10985e+02       9.19752e+00      -5.66321e-01       3.18906e-04       1.93106e+02
 13.000      2.10489e+02       9.02943e+00      -9.79165e-01       3.13373e-04       1.89310e+02
 13.100      2.10001e+02       8.86981e+00      -1.36526e+00       3.07819e-04       1.85524e+02
 13.200      2.09525e+02       8.71810e+00      -1.72614e+00       3.02263e-04       1.81762e+02
 13.300      2.09064e+02       8.57370e+00      -2.06335e+00       2.96721e-04       1.78036e+02
 13.400      2.08623e+02       8.43603e+00      -2.37840e+00       2.91208e-04       1.74360e+02
 13.500      2.08206e+02       8.30449e+00      -2.67284e+00       2.85737e-04       1.70742e+02
 13.600      2.07817e+02       8.17851e+00      -2.94820e+00       2.80323e-04       1.67195e+02
 13.700      2.07461e+02       8.05750e+00      -3.20601e+00       2.74977e-04       1.63725e+02
 13.800      2.07142e+02       7.94086e+00      -3.44780e+00       2.69711e-04       1.60343e+02
 13.900      2.06864e+02       7.82801e+00      -3.67511e+00       2.64536e-04       1.57054e+02
 14.000      2.06630e+02       7.71837e+00      -3.88947e+00       2.59459e-04       1.53867e+02
 14.100      2.06447e+02       7.61135e+00      -4.09241e+00       2.54492e-04       1.50787e+02
 14.200      2.06316e+02       7.50638e+00      -4.28538e+00       2.49639e-04       1.47818e+02
 14.300      2.06237e+02       7.40296e+00      -4.46912e+00       2.44904e-04       1.44958e+02
 14.400      2.06206e+02       7.30068e+00      -4.64395e+00       2.40282e-04       1.42201e+02
 14.500      2.06219e+02       7.19910e+00      -4.81022e+00       2.35772e-04       1.39542e+02
 14.600      2.06274e+02       7.09779e+00      -4.96827e+00       2.31371e-04       1.36973e+02
 14.700      2.06365e+02       6.99633e+00      -5.11842e+00       2.27078e-04       1.34491e+02
 14.800      2.06490e+02       6.89428e+00      -5.26101e+00       2.22889e-04       1.32090e+02
 14.900      2.06645e+02       6.79122e+00      -5.39638e+00       2.18803e-04       1.29766e+02
 15.000      2.06825e+02       6.68671e+00      -5.52486e+00       2.14818e-04       1.27514e+02
 15.100      2.07028e+02       6.58033e+00      -5.64680e+00       2.10932e-04       1.25329e+02
 15.200      2.07249e+02       6.47164e+00      -5.76252e+00       2.07142e-04       1.23209e+02
 15.300      2.07485e+02       6.36023e+00      -5.87236e+00       2.03447e-04       1.21149e+02
 15.400      2.07732e+02       6.24565e+00      -5.97667e+00       1.99845e-04       1.19146e+02
 15.500      2.07987e+02       6.12748e+00      -6.07576e+00       1.96333e-04       1.17195e+02
 15.600      2.08245e+02       6.00528e+00      -6.16999e+00       1.92910e-04       1.15295e+02
 15.700      2.08503e+02       5.87864e+00      -6.25968e+00       1.89574e-04       1.13442e+02
 15.800      2.08758e+02       5.74712e+00      -6.34517e+00       1.86322e-04       1.11632e+02
 15.900      2.09005e+02       5.61029e+00      -6.42680e+00       1.83154e-04       1.09864e+02
 16.000      2.09241e+02       5.46772e+00      -6.50490e+00       1.80067e-04       1.08134e+02
 16.100      2.09462e+02       5.31898e+00      -6.57981e+00       1.77059e-04       1.06440e+02
 16.200      2.09665e+02       5.16364e+00      -6.65187e+00       1.74128e-04       1.04780e+02
 16.300      2.09845e+02       5.00128e+00      -6.72140e+00       1.71274e-04       1.03151e+02
 16.400      2.10000e+02       4.83146e+00      -6.78875e+00       1.68493e-04       1.01551e+02
 16.500      2.10125e+02       4.65375e+00      -6.85425e+00       1.65785e-04       9.99781e+01
 16.600      2.10217e+02       4.46785e+00      -6.91812e+00       1.63147e-04       9.84307e+01
 16.700      2.10279e+02       4.27386e+00      -6.98008e+00       1.60576e-04       9.69076e+01
 16.800      2.10312e+02       4.07202e+00      -7.03973e+00       1.58067e-04       9.54082e+01
 16.900      2.10319e+02       3.86255e+00      -7.09670e+00       1.55615e-04       9.39317e+01
 17.000      2.10302e+02       3.64567e+00      -7.15060e+00       1.53218e-04       9.24775e+01
 17.100      2.10264e+02       3.42162e+00      -7.20103e+00       1.50872e-04       9.10447e+01
 17.200      2.10206e+02       3.19062e+00      -7.24761e+00       1.48573e-04       8.96329e+01
 17.300      2.10132e+02       2.95290e+00      -7.28994e+00       1.46318e-04       8.82414e+01
 17.400      2.10044e+02       2.70867e+00      -7.32766e+00       1.44104e-04       8.68696e+01
 17.500      2.09943e+02       2.45817e+00      -7.36035e+00       1.41928e-04       8.55169e+01
 17.600      2.09833e+02       2.20162e+00      -7.38764e+00       1.39787e-04       8.41828e+01
 17.700      2.09716e+02       1.93926e+00      -7.40914e+00       1.37679e-04       8.28668e+01
 17.800      2.09594e+02       1.67130e+00      -7.42445e+00       1.35600e-04       8.15683e+01
 17.900      2.09469e+02       1.39796e+00      -7.43320e+00       1.33550e-04       8.02870e+01
 18.000      2.09345e+02       1.11949e+00      -7.43499e+00       1.31524e-04       7.90222e+01
 18.100      2.09222e+02       8.36090e-01      -7.42943e+00       1.29522e-04       7.77736e+01
 18.200      2.09104e+02       5.48002e-01      -7.41614e+00       1.27541e-04       7.65408e+01
 18.300      2.08993e+02       2.55454e-01      -7.39473e+00       1.25578e-04       7.53234e+01
 18.400      2.08892e+02      -4.13402e-02      -7.36481e+00       1.23634e-04       7.41209e+01
 18.500      2.08802e+02      -3.42149e-01      -7.32599e+00       1.21705e-04       7.29330e+01
 18.600      2.08727e+02      -6.46746e-01      -7.27788e+00       1.19789e-04       7.17593e+01
 18.700      2.08667e+02      -9.54906e-01      -7.22009e+00       1.17887e-04       7.05995e+01
 18.800      2.08627e+02      -1.26638e+00      -7.15226e+00       1.15996e-04       6.94534e+01
 18.900      2.08606e+02      -1.58051e+00      -7.07431e+00       1.14115e-04       6.83209e+01
 19.000      2.08604e+02      -1.89618e+00      -6.98654e+00       1.12248e-04       6.72024e+01
 19.100      2.08621e+02      -2.21224e+00      -6.88922e+00       1.10396e-04       6.60985e+01
 19.200      2.08655e+02      -2.52755e+00      -6.78267e+00       1.08559e-04       6.50094e+01
 19.300      2.08705e+02      -2.84097e+00      -6.66716e+00       1.06740e-04       6.39356e+01
 19.400      2.08772e+02      -3.15137e+00      -6.54300e+00       1.04940e-04       6.28774e+01
 19.500      2.08854e+02      -3.45760e+00      -6.41047e+00       1.03160e-04       6.18349e+01
 19.600      2.08950e+02      -3.75853e+00      -6.26987e+00       1.01400e-04       6.08085e+01
 19.700      2.09061e+02      -4.05301e+00      -6.12150e+00       9.96634e-05       5.97985e+01
 19.800      2.09184e+02      -4.33990e+00      -5.96565e+00       9.79497e-05       5.88049e+01
 19.900      2.09320e+02      -4.61807e+00      -5.80261e+00       9.62601e-05       5.78280e+01
 20.000      2.09467e+02      -4.88638e+00      -5.63268e+00       9.45954e-05       5.68679e+01
 20.100      2.09625e+02      -5.14368e+00      -5.45614e+00       9.29564e-05       5.59248e+01
 20.200      2.09793e+02      -5.38883e+00      -5.27330e+00       9.13438e-05       5.49987e+01
 20.300      2.09971e+02      -5.62069e+00      -5.08446e+00       8.97582e-05       5.40898e+01
