# Data Source: NASA GEOS5 Near-Real-Time
# Model Time = 2010-05-18 18:00:00
# Location = [  39.7393, -104.9900 ]
# Fields = [ Z(km), T(K), U(m/s), V(m/s), R(g/cm3), P(mbar) ]
# Ground Height = 1.589
  0.000      2.99811e+02       8.37546e-01       2.04627e+00       1.17096e-03       1.00756e+03
  0.100      2.99161e+02       8.18485e-01       2.03067e+00       1.15977e-03       9.95774e+02
  0.200      2.98508e+02       7.97814e-01       2.01541e+00       1.14872e-03       9.84127e+02
  0.300      2.97843e+02       7.71085e-01       2.00136e+00       1.13781e-03       9.72615e+02
  0.400      2.97165e+02       7.38764e-01       1.98502e+00       1.12707e-03       9.61237e+02
  0.500      2.96490e+02       7.12033e-01       1.95326e+00       1.11642e-03       9.49986e+02
  0.600      2.95833e+02       6.99148e-01       1.90017e+00       1.10579e-03       9.38858e+02
  0.700      2.95185e+02       6.91065e-01       1.85357e+00       1.09522e-03       9.27850e+02
  0.800      2.94536e+02       6.76413e-01       1.84508e+00       1.08475e-03       9.16965e+02
  0.900      2.93884e+02       6.61725e-01       1.86455e+00       1.07440e-03       9.06202e+02
  1.000      2.93231e+02       6.62618e-01       1.87977e+00       1.06416e-03       8.95565e+02
  1.100      2.92589e+02       6.80516e-01       1.86001e+00       1.05397e-03       8.85052e+02
  1.200      2.91980e+02       6.99161e-01       1.77667e+00       1.04377e-03       8.74659e+02
  1.300      2.91410e+02       7.02282e-01       1.62744e+00       1.03352e-03       8.64383e+02
  1.400      2.90826e+02       6.77517e-01       1.50483e+00       1.02342e-03       8.54222e+02
  1.500      2.90167e+02       6.15254e-01       1.51764e+00       1.01369e-03       8.44178e+02
  1.600      2.89421e+02       5.35916e-01       1.69043e+00       1.00435e-03       8.34248e+02
  1.700      2.88619e+02       4.84230e-01       1.97962e+00       9.95277e-04       8.24425e+02
  1.800      2.87793e+02       4.88744e-01       2.34414e+00       9.86364e-04       8.14704e+02
  1.900      2.86973e+02       5.21401e-01       2.75786e+00       9.77496e-04       8.05079e+02
  2.000      2.86189e+02       5.43879e-01       3.19773e+00       9.68571e-04       7.95547e+02
  2.100      2.85449e+02       5.60547e-01       3.63969e+00       9.59556e-04       7.86105e+02
  2.200      2.84741e+02       6.22147e-01       4.05851e+00       9.50498e-04       7.76754e+02
  2.300      2.84056e+02       7.73455e-01       4.43140e+00       9.41434e-04       7.67495e+02
  2.400      2.83399e+02       1.00014e+00       4.75290e+00       9.32349e-04       7.58330e+02
  2.500      2.82784e+02       1.26221e+00       5.02511e+00       9.23200e-04       7.49259e+02
  2.600      2.82215e+02       1.52867e+00       5.25914e+00       9.13979e-04       7.40284e+02
  2.700      2.81663e+02       1.79704e+00       5.49415e+00       9.04781e-04       7.31401e+02
  2.800      2.81093e+02       2.07032e+00       5.77462e+00       8.95714e-04       7.22607e+02
  2.900      2.80484e+02       2.34230e+00       6.12619e+00       8.86845e-04       7.13900e+02
  3.000      2.79834e+02       2.59007e+00       6.54021e+00       8.78171e-04       7.05279e+02
  3.100      2.79148e+02       2.78931e+00       7.00418e+00       8.69679e-04       6.96746e+02
  3.200      2.78432e+02       2.93314e+00       7.49576e+00       8.61343e-04       6.88298e+02
  3.300      2.77698e+02       3.03835e+00       7.97931e+00       8.53118e-04       6.79930e+02
  3.400      2.76961e+02       3.12332e+00       8.41866e+00       8.44958e-04       6.71640e+02
  3.500      2.76224e+02       3.20299e+00       8.79448e+00       8.36851e-04       6.63424e+02
  3.600      2.75479e+02       3.28789e+00       9.10889e+00       8.28822e-04       6.55287e+02
  3.700      2.74719e+02       3.38812e+00       9.36548e+00       8.20898e-04       6.47231e+02
  3.800      2.73937e+02       3.50628e+00       9.57062e+00       8.13097e-04       6.39255e+02
  3.900      2.73131e+02       3.63372e+00       9.73484e+00       8.05419e-04       6.31357e+02
  4.000      2.72300e+02       3.76087e+00       9.86907e+00       7.97865e-04       6.23532e+02
  4.100      2.71444e+02       3.88673e+00       9.98599e+00       7.90426e-04       6.15777e+02
  4.200      2.70574e+02       4.02998e+00       1.01024e+01       7.83072e-04       6.08092e+02
  4.300      2.69700e+02       4.21206e+00       1.02356e+01       7.75772e-04       6.00478e+02
  4.400      2.68833e+02       4.45089e+00       1.04031e+01       7.68497e-04       5.92936e+02
  4.500      2.67977e+02       4.74725e+00       1.06228e+01       7.61238e-04       5.85464e+02
  4.600      2.67135e+02       5.09676e+00       1.09126e+01       7.53987e-04       5.78065e+02
  4.700      2.66310e+02       5.49419e+00       1.12886e+01       7.46739e-04       5.70739e+02
  4.800      2.65503e+02       5.92088e+00       1.17350e+01       7.39488e-04       5.63485e+02
  4.900      2.64717e+02       6.34729e+00       1.22103e+01       7.32229e-04       5.56301e+02
  5.000      2.63953e+02       6.74360e+00       1.26725e+01       7.24956e-04       5.49187e+02
  5.100      2.63210e+02       7.08298e+00       1.30849e+01       7.17673e-04       5.42140e+02
  5.200      2.62480e+02       7.34706e+00       1.34260e+01       7.10407e-04       5.35162e+02
  5.300      2.61752e+02       7.51899e+00       1.36774e+01       7.03189e-04       5.28255e+02
  5.400      2.61014e+02       7.58285e+00       1.38215e+01       6.96048e-04       5.21417e+02
  5.500      2.60266e+02       7.54195e+00       1.38647e+01       6.88991e-04       5.14651e+02
  5.600      2.59510e+02       7.41765e+00       1.38359e+01       6.82006e-04       5.07953e+02
  5.700      2.58751e+02       7.23199e+00       1.37647e+01       6.75078e-04       5.01324e+02
  5.800      2.57995e+02       7.00682e+00       1.36784e+01       6.68197e-04       4.94763e+02
  5.900      2.57243e+02       6.76279e+00       1.35880e+01       6.61352e-04       4.88268e+02
  6.000      2.56500e+02       6.51998e+00       1.34970e+01       6.54536e-04       4.81840e+02
  6.100      2.55768e+02       6.29847e+00       1.34088e+01       6.47741e-04       4.75477e+02
  6.200      2.55050e+02       6.11641e+00       1.33257e+01       6.40963e-04       4.69181e+02
  6.300      2.54343e+02       5.98234e+00       1.32444e+01       6.34210e-04       4.62950e+02
  6.400      2.53642e+02       5.90179e+00       1.31598e+01       6.27493e-04       4.56786e+02
  6.500      2.52943e+02       5.88028e+00       1.30665e+01       6.20825e-04       4.50686e+02
  6.600      2.52243e+02       5.92150e+00       1.29603e+01       6.14214e-04       4.44652e+02
  6.700      2.51540e+02       6.01885e+00       1.28402e+01       6.07662e-04       4.38683e+02
  6.800      2.50834e+02       6.16212e+00       1.27067e+01       6.01168e-04       4.32777e+02
  6.900      2.50125e+02       6.34110e+00       1.25604e+01       5.94733e-04       4.26934e+02
  7.000      2.49413e+02       6.54579e+00       1.24024e+01       5.88353e-04       4.21152e+02
  7.100      2.48697e+02       6.76865e+00       1.22446e+01       5.82034e-04       4.15432e+02
  7.200      2.47974e+02       7.00374e+00       1.21055e+01       5.75779e-04       4.09773e+02
  7.300      2.47241e+02       7.24514e+00       1.20037e+01       5.69594e-04       4.04174e+02
  7.400      2.46498e+02       7.48693e+00       1.19577e+01       5.63484e-04       3.98637e+02
  7.500      2.45741e+02       7.72294e+00       1.19766e+01       5.57453e-04       3.93159e+02
  7.600      2.44969e+02       7.94652e+00       1.20514e+01       5.51503e-04       3.87741e+02
  7.700      2.44181e+02       8.15096e+00       1.21708e+01       5.45635e-04       3.82380e+02
  7.800      2.43373e+02       8.32957e+00       1.23235e+01       5.39852e-04       3.77077e+02
  7.900      2.42546e+02       8.47608e+00       1.24980e+01       5.34155e-04       3.71830e+02
  8.000      2.41700e+02       8.59075e+00       1.26800e+01       5.28540e-04       3.66638e+02
  8.100      2.40838e+02       8.67882e+00       1.28527e+01       5.23001e-04       3.61500e+02
  8.200      2.39961e+02       8.74564e+00       1.29994e+01       5.17529e-04       3.56417e+02
  8.300      2.39074e+02       8.79655e+00       1.31032e+01       5.12119e-04       3.51386e+02
  8.400      2.38178e+02       8.83694e+00       1.31497e+01       5.06764e-04       3.46408e+02
  8.500      2.37274e+02       8.87262e+00       1.31476e+01       5.01460e-04       3.41482e+02
  8.600      2.36362e+02       8.90963e+00       1.31180e+01       4.96208e-04       3.36608e+02
  8.700      2.35443e+02       8.95398e+00       1.30822e+01       4.91006e-04       3.31784e+02
  8.800      2.34517e+02       9.01173e+00       1.30616e+01       4.85854e-04       3.27010e+02
  8.900      2.33583e+02       9.08879e+00       1.30765e+01       4.80750e-04       3.22287e+02
  9.000      2.32643e+02       9.18921e+00       1.31281e+01       4.75692e-04       3.17613e+02
  9.100      2.31700e+02       9.31548e+00       1.32020e+01       4.70675e-04       3.12989e+02
  9.200      2.30754e+02       9.47006e+00       1.32837e+01       4.65695e-04       3.08413e+02
  9.300      2.29810e+02       9.65542e+00       1.33584e+01       4.60746e-04       3.03887e+02
  9.400      2.28868e+02       9.87399e+00       1.34113e+01       4.55825e-04       2.99410e+02
  9.500      2.27934e+02       1.01231e+01       1.34348e+01       4.50924e-04       2.94981e+02
  9.600      2.27013e+02       1.03862e+01       1.34402e+01       4.46031e-04       2.90601e+02
  9.700      2.26114e+02       1.06443e+01       1.34421e+01       4.41130e-04       2.86270e+02
  9.800      2.25245e+02       1.08787e+01       1.34550e+01       4.36207e-04       2.81987e+02
  9.900      2.24413e+02       1.10704e+01       1.34936e+01       4.31249e-04       2.77753e+02
 10.000      2.23627e+02       1.12008e+01       1.35720e+01       4.26243e-04       2.73567e+02
 10.100      2.22889e+02       1.12692e+01       1.36928e+01       4.21188e-04       2.69430e+02
 10.200      2.22191e+02       1.13017e+01       1.38402e+01       4.16100e-04       2.65342e+02
 10.300      2.21526e+02       1.13264e+01       1.39971e+01       4.10995e-04       2.61302e+02
 10.400      2.20886e+02       1.13716e+01       1.41464e+01       4.05891e-04       2.57312e+02
 10.500      2.20263e+02       1.14657e+01       1.42709e+01       4.00804e-04       2.53370e+02
 10.600      2.19650e+02       1.16369e+01       1.43535e+01       3.95747e-04       2.49477e+02
 10.700      2.19043e+02       1.19008e+01       1.43828e+01       3.90730e-04       2.45634e+02
 10.800      2.18449e+02       1.22396e+01       1.43634e+01       3.85741e-04       2.41839e+02
 10.900      2.17878e+02       1.26298e+01       1.43023e+01       3.80763e-04       2.38095e+02
 11.000      2.17338e+02       1.30479e+01       1.42064e+01       3.75785e-04       2.34400e+02
 11.100      2.16839e+02       1.34704e+01       1.40829e+01       3.70792e-04       2.30754e+02
 11.200      2.16390e+02       1.38739e+01       1.39388e+01       3.65772e-04       2.27159e+02
 11.300      2.16000e+02       1.42351e+01       1.37811e+01       3.60713e-04       2.23613e+02
 11.400      2.15673e+02       1.45413e+01       1.36168e+01       3.55613e-04       2.20118e+02
 11.500      2.15406e+02       1.47935e+01       1.34526e+01       3.50481e-04       2.16672e+02
 11.600      2.15194e+02       1.49939e+01       1.32953e+01       3.45329e-04       2.13277e+02
 11.700      2.15034e+02       1.51444e+01       1.31517e+01       3.40165e-04       2.09932e+02
 11.800      2.14922e+02       1.52471e+01       1.30285e+01       3.34999e-04       2.06636e+02
 11.900      2.14855e+02       1.53042e+01       1.29325e+01       3.29841e-04       2.03391e+02
 12.000      2.14828e+02       1.53176e+01       1.28705e+01       3.24699e-04       2.00196e+02
 12.100      2.14839e+02       1.52900e+01       1.28447e+01       3.19581e-04       1.97050e+02
 12.200      2.14884e+02       1.52269e+01       1.28366e+01       3.14494e-04       1.93954e+02
 12.300      2.14960e+02       1.51349e+01       1.28208e+01       3.09444e-04       1.90907e+02
 12.400      2.15065e+02       1.50202e+01       1.27724e+01       3.04435e-04       1.87908e+02
 12.500      2.15195e+02       1.48892e+01       1.26662e+01       2.99475e-04       1.84959e+02
 12.600      2.15349e+02       1.47485e+01       1.24770e+01       2.94566e-04       1.82057e+02
 12.700      2.15523e+02       1.46044e+01       1.21797e+01       2.89714e-04       1.79203e+02
 12.800      2.15714e+02       1.44634e+01       1.17492e+01       2.84924e-04       1.76396e+02
 12.900      2.15920e+02       1.43316e+01       1.11616e+01       2.80198e-04       1.73636e+02
 13.000      2.16137e+02       1.42091e+01       1.04243e+01       2.75543e-04       1.70923e+02
 13.100      2.16359e+02       1.40901e+01       9.57580e+00       2.70964e-04       1.68255e+02
 13.200      2.16581e+02       1.39686e+01       8.65602e+00       2.66465e-04       1.65632e+02
 13.300      2.16798e+02       1.38383e+01       7.70495e+00       2.62053e-04       1.63052e+02
 13.400      2.17005e+02       1.36932e+01       6.76255e+00       2.57730e-04       1.60515e+02
 13.500      2.17196e+02       1.35272e+01       5.86878e+00       2.53502e-04       1.58021e+02
 13.600      2.17365e+02       1.33340e+01       5.06361e+00       2.49372e-04       1.55568e+02
 13.700      2.17509e+02       1.31077e+01       4.38699e+00       2.45344e-04       1.53156e+02
 13.800      2.17621e+02       1.28420e+01       3.87889e+00       2.41420e-04       1.50784e+02
 13.900      2.17696e+02       1.25316e+01       3.57579e+00       2.37602e-04       1.48451e+02
 14.000      2.17736e+02       1.21799e+01       3.47371e+00       2.33887e-04       1.46156e+02
 14.100      2.17743e+02       1.17957e+01       3.54245e+00       2.30266e-04       1.43898e+02
 14.200      2.17721e+02       1.13882e+01       3.75141e+00       2.26731e-04       1.41675e+02
 14.300      2.17675e+02       1.09664e+01       4.06997e+00       2.23274e-04       1.39486e+02
 14.400      2.17608e+02       1.05393e+01       4.46750e+00       2.19890e-04       1.37329e+02
 14.500      2.17523e+02       1.01160e+01       4.91340e+00       2.16570e-04       1.35203e+02
 14.600      2.17425e+02       9.70554e+00       5.37704e+00       2.13309e-04       1.33107e+02
 14.700      2.17318e+02       9.31702e+00       5.82780e+00       2.10101e-04       1.31040e+02
 14.800      2.17204e+02       8.95944e+00       6.23507e+00       2.06940e-04       1.29001e+02
 14.900      2.17088e+02       8.64189e+00       6.56822e+00       2.03821e-04       1.26989e+02
 15.000      2.16974e+02       8.37339e+00       6.79665e+00       2.00738e-04       1.25002e+02
 15.100      2.16864e+02       8.16057e+00       6.89697e+00       1.97688e-04       1.23041e+02
 15.200      2.16760e+02       8.00023e+00       6.87487e+00       1.94671e-04       1.21105e+02
 15.300      2.16661e+02       7.88671e+00       6.74331e+00       1.91690e-04       1.19196e+02
 15.400      2.16567e+02       7.81435e+00       6.51529e+00       1.88746e-04       1.17315e+02
 15.500      2.16478e+02       7.77748e+00       6.20377e+00       1.85841e-04       1.15461e+02
 15.600      2.16394e+02       7.77046e+00       5.82172e+00       1.82975e-04       1.13637e+02
 15.700      2.16315e+02       7.78762e+00       5.38213e+00       1.80151e-04       1.11842e+02
 15.800      2.16241e+02       7.82330e+00       4.89797e+00       1.77370e-04       1.10078e+02
 15.900      2.16172e+02       7.87185e+00       4.38222e+00       1.74632e-04       1.08344e+02
 16.000      2.16107e+02       7.92761e+00       3.84784e+00       1.71939e-04       1.06641e+02
 16.100      2.16047e+02       7.98491e+00       3.30783e+00       1.69291e-04       1.04970e+02
 16.200      2.15991e+02       8.03810e+00       2.77514e+00       1.66691e-04       1.03330e+02
 16.300      2.15939e+02       8.08152e+00       2.26277e+00       1.64137e-04       1.01723e+02
 16.400      2.15892e+02       8.10951e+00       1.78367e+00       1.61631e-04       1.00149e+02
 16.500      2.15850e+02       8.11725e+00       1.34896e+00       1.59174e-04       9.86062e+01
 16.600      2.15811e+02       8.10437e+00       9.59677e-01       1.56763e-04       9.70952e+01
 16.700      2.15776e+02       8.07199e+00       6.13564e-01       1.54396e-04       9.56140e+01
 16.800      2.15746e+02       8.02122e+00       3.08348e-01       1.52072e-04       9.41614e+01
 16.900      2.15720e+02       7.95320e+00       4.17441e-02       1.49788e-04       9.27358e+01
 17.000      2.15697e+02       7.86902e+00      -1.88515e-01       1.47542e-04       9.13362e+01
 17.100      2.15679e+02       7.76982e+00      -3.84703e-01       1.45333e-04       8.99612e+01
 17.200      2.15665e+02       7.65670e+00      -5.49095e-01       1.43160e-04       8.86097e+01
 17.300      2.15654e+02       7.53079e+00      -6.83961e-01       1.41019e-04       8.72806e+01
 17.400      2.15647e+02       7.39320e+00      -7.91581e-01       1.38911e-04       8.59728e+01
 17.500      2.15645e+02       7.24505e+00      -8.74226e-01       1.36832e-04       8.46853e+01
 17.600      2.15645e+02       7.08746e+00      -9.34169e-01       1.34782e-04       8.34172e+01
 17.700      2.15650e+02       6.92155e+00      -9.73685e-01       1.32760e-04       8.21674e+01
 17.800      2.15659e+02       6.74843e+00      -9.95047e-01       1.30764e-04       8.09353e+01
 17.900      2.15671e+02       6.56922e+00      -1.00053e+00       1.28793e-04       7.97197e+01
 18.000      2.15686e+02       6.38504e+00      -9.92407e-01       1.26846e-04       7.85201e+01
 18.100      2.15705e+02       6.19700e+00      -9.72952e-01       1.24921e-04       7.73355e+01
 18.200      2.15728e+02       6.00622e+00      -9.44439e-01       1.23018e-04       7.61654e+01
 18.300      2.15754e+02       5.81383e+00      -9.09142e-01       1.21136e-04       7.50090e+01
 18.400      2.15784e+02       5.62094e+00      -8.69334e-01       1.19273e-04       7.38657e+01
 18.500      2.15817e+02       5.42866e+00      -8.27290e-01       1.17428e-04       7.27347e+01
 18.600      2.15854e+02       5.23811e+00      -7.85283e-01       1.15602e-04       7.16156e+01
 18.700      2.15894e+02       5.05042e+00      -7.45588e-01       1.13793e-04       7.05077e+01
 18.800      2.15937e+02       4.86667e+00      -7.10413e-01       1.12000e-04       6.94107e+01
 18.900      2.15983e+02       4.68738e+00      -6.80712e-01       1.10224e-04       6.83245e+01
 19.000      2.16032e+02       4.51261e+00      -6.56305e-01       1.08465e-04       6.72497e+01
 19.100      2.16083e+02       4.34235e+00      -6.36969e-01       1.06726e-04       6.61867e+01
 19.200      2.16136e+02       4.17663e+00      -6.22484e-01       1.05006e-04       6.51362e+01
 19.300      2.16191e+02       4.01545e+00      -6.12628e-01       1.03306e-04       6.40985e+01
 19.400      2.16248e+02       3.85883e+00      -6.07179e-01       1.01629e-04       6.30740e+01
 19.500      2.16305e+02       3.70679e+00      -6.05915e-01       9.99737e-05       6.20632e+01
 19.600      2.16363e+02       3.55933e+00      -6.08614e-01       9.83415e-05       6.10663e+01
 19.700      2.16421e+02       3.41648e+00      -6.15055e-01       9.67331e-05       6.00837e+01
 19.800      2.16479e+02       3.27824e+00      -6.25016e-01       9.51491e-05       5.91156e+01
 19.900      2.16537e+02       3.14463e+00      -6.38276e-01       9.35900e-05       5.81624e+01
 20.000      2.16593e+02       3.01566e+00      -6.54612e-01       9.20562e-05       5.72243e+01
 20.100      2.16649e+02       2.89134e+00      -6.73803e-01       9.05484e-05       5.63014e+01
 20.200      2.16703e+02       2.77170e+00      -6.95628e-01       8.90667e-05       5.53940e+01
 20.300      2.16755e+02       2.65674e+00      -7.19864e-01       8.76117e-05       5.45022e+01
