# Data Source: NASA MERRA (version 2)
# Model Time = 2011-08-28 18:00:00
# Location = [  39.1026,  -84.5123 ]
# Fields = [ Z(km), T(K), U(m/s), V(m/s), R(g/cm3), P(mbar) ]
# Ground Height = 0.165
  0.000      2.99219e+02       1.92069e+00      -4.93506e+00       1.17588e-03       1.00979e+03
  0.100      2.98585e+02       1.93567e+00      -4.94397e+00       1.16483e-03       9.98190e+02
  0.200      2.97933e+02       1.95714e+00      -4.97711e+00       1.15397e-03       9.86724e+02
  0.300      2.97138e+02       2.02660e+00      -5.18908e+00       1.14380e-03       9.75416e+02
  0.400      2.96120e+02       2.16531e+00      -5.66841e+00       1.13462e-03       9.64273e+02
  0.500      2.94991e+02       2.30413e+00      -6.20836e+00       1.12595e-03       9.53257e+02
  0.600      2.93902e+02       2.35753e+00      -6.54591e+00       1.11716e-03       9.42323e+02
  0.700      2.92884e+02       2.33022e+00      -6.68648e+00       1.10812e-03       9.31465e+02
  0.800      2.91898e+02       2.27920e+00      -6.79044e+00       1.09902e-03       9.20696e+02
  0.900      2.90905e+02       2.24094e+00      -6.93341e+00       1.08998e-03       9.10022e+02
  1.000      2.89876e+02       2.22435e+00      -7.07852e+00       1.08113e-03       8.99439e+02
  1.100      2.88794e+02       2.23111e+00      -7.19195e+00       1.07252e-03       8.88943e+02
  1.200      2.87691e+02       2.24442e+00      -7.27581e+00       1.06402e-03       8.78530e+02
  1.300      2.86611e+02       2.24352e+00      -7.33988e+00       1.05547e-03       8.68203e+02
  1.400      2.85597e+02       2.20769e+00      -7.39393e+00       1.04672e-03       8.57958e+02
  1.500      2.84692e+02       2.11626e+00      -7.44773e+00       1.03761e-03       8.47797e+02
  1.600      2.83922e+02       1.96286e+00      -7.51205e+00       1.02806e-03       8.37721e+02
  1.700      2.83280e+02       1.77155e+00      -7.59982e+00       1.01811e-03       8.27733e+02
  1.800      2.82751e+02       1.57022e+00      -7.72419e+00       1.00782e-03       8.17840e+02
  1.900      2.82324e+02       1.38681e+00      -7.89835e+00       9.97252e-04       8.08044e+02
  2.000      2.81986e+02       1.24920e+00      -8.13544e+00       9.86471e-04       7.98351e+02
  2.100      2.81722e+02       1.17461e+00      -8.43992e+00       9.75536e-04       7.88763e+02
  2.200      2.81516e+02       1.15444e+00      -8.79516e+00       9.64516e-04       7.79281e+02
  2.300      2.81347e+02       1.17626e+00      -9.18140e+00       9.53479e-04       7.69903e+02
  2.400      2.81199e+02       1.22765e+00      -9.57889e+00       9.42492e-04       7.60631e+02
  2.500      2.81053e+02       1.29616e+00      -9.96788e+00       9.31615e-04       7.51462e+02
  2.600      2.80892e+02       1.37133e+00      -1.03306e+01       9.20906e-04       7.42397e+02
  2.700      2.80705e+02       1.45545e+00      -1.06621e+01       9.10393e-04       7.33434e+02
  2.800      2.80486e+02       1.55591e+00      -1.09628e+01       9.00095e-04       7.24571e+02
  2.900      2.80227e+02       1.68013e+00      -1.12329e+01       8.90030e-04       7.15807e+02
  3.000      2.79921e+02       1.83553e+00      -1.14727e+01       8.80213e-04       7.07139e+02
  3.100      2.79560e+02       2.02952e+00      -1.16825e+01       8.70662e-04       6.98566e+02
  3.200      2.79143e+02       2.26516e+00      -1.18640e+01       8.61379e-04       6.90086e+02
  3.300      2.78676e+02       2.53496e+00      -1.20225e+01       8.52334e-04       6.81697e+02
  3.400      2.78169e+02       2.82983e+00      -1.21635e+01       8.43494e-04       6.73398e+02
  3.500      2.77629e+02       3.14069e+00      -1.22927e+01       8.34828e-04       6.65187e+02
  3.600      2.77066e+02       3.45846e+00      -1.24158e+01       8.26304e-04       6.57061e+02
  3.700      2.76490e+02       3.77405e+00      -1.25385e+01       8.17894e-04       6.49020e+02
  3.800      2.75905e+02       4.07946e+00      -1.26626e+01       8.09576e-04       6.41061e+02
  3.900      2.75311e+02       4.36965e+00      -1.27794e+01       8.01355e-04       6.33184e+02
  4.000      2.74703e+02       4.64011e+00      -1.28782e+01       7.93239e-04       6.25386e+02
  4.100      2.74078e+02       4.88632e+00      -1.29486e+01       7.85235e-04       6.17668e+02
  4.200      2.73432e+02       5.10378e+00      -1.29800e+01       7.77351e-04       6.10027e+02
  4.300      2.72764e+02       5.28797e+00      -1.29618e+01       7.69594e-04       6.02462e+02
  4.400      2.72068e+02       5.43528e+00      -1.28845e+01       7.61970e-04       5.94973e+02
  4.500      2.71349e+02       5.55248e+00      -1.27517e+01       7.54469e-04       5.87558e+02
  4.600      2.70611e+02       5.65293e+00      -1.25752e+01       7.47074e-04       5.80217e+02
  4.700      2.69861e+02       5.75010e+00      -1.23668e+01       7.39765e-04       5.72948e+02
  4.800      2.69105e+02       5.85745e+00      -1.21385e+01       7.32525e-04       5.65752e+02
  4.900      2.68349e+02       5.98845e+00      -1.19021e+01       7.25337e-04       5.58627e+02
  5.000      2.67599e+02       6.15655e+00      -1.16695e+01       7.18185e-04       5.51572e+02
  5.100      2.66860e+02       6.37335e+00      -1.14517e+01       7.11054e-04       5.44587e+02
  5.200      2.66131e+02       6.63536e+00      -1.12510e+01       7.03946e-04       5.37672e+02
  5.300      2.65410e+02       6.93188e+00      -1.10658e+01       6.96871e-04       5.30825e+02
  5.400      2.64693e+02       7.25216e+00      -1.08946e+01       6.89836e-04       5.24048e+02
  5.500      2.63978e+02       7.58546e+00      -1.07358e+01       6.82852e-04       5.17340e+02
  5.600      2.63259e+02       7.92102e+00      -1.05877e+01       6.75927e-04       5.10700e+02
  5.700      2.62536e+02       8.24811e+00      -1.04487e+01       6.69069e-04       5.04128e+02
  5.800      2.61803e+02       8.55609e+00      -1.03173e+01       6.62285e-04       4.97624e+02
  5.900      2.61061e+02       8.83973e+00      -1.01937e+01       6.55577e-04       4.91188e+02
  6.000      2.60312e+02       9.10146e+00      -1.00804e+01       6.48935e-04       4.84817e+02
  6.100      2.59560e+02       9.34430e+00      -9.98029e+00       6.42350e-04       4.78510e+02
  6.200      2.58807e+02       9.57128e+00      -9.89611e+00       6.35812e-04       4.72267e+02
  6.300      2.58057e+02       9.78541e+00      -9.83069e+00       6.29313e-04       4.66085e+02
  6.400      2.57313e+02       9.98971e+00      -9.78683e+00       6.22844e-04       4.59964e+02
  6.500      2.56578e+02       1.01872e+01      -9.76733e+00       6.16396e-04       4.53901e+02
  6.600      2.55855e+02       1.03809e+01      -9.77493e+00       6.09961e-04       4.47897e+02
  6.700      2.55146e+02       1.05716e+01      -9.80915e+00       6.03539e-04       4.41952e+02
  6.800      2.54447e+02       1.07574e+01      -9.86474e+00       5.97137e-04       4.36067e+02
  6.900      2.53758e+02       1.09358e+01      -9.93608e+00       5.90766e-04       4.30247e+02
  7.000      2.53077e+02       1.11045e+01      -1.00175e+01       5.84435e-04       4.24492e+02
  7.100      2.52400e+02       1.12611e+01      -1.01035e+01       5.78152e-04       4.18806e+02
  7.200      2.51727e+02       1.14034e+01      -1.01883e+01       5.71925e-04       4.13191e+02
  7.300      2.51055e+02       1.15289e+01      -1.02664e+01       5.65764e-04       4.07649e+02
  7.400      2.50382e+02       1.16352e+01      -1.03320e+01       5.59675e-04       4.02181e+02
  7.500      2.49707e+02       1.17202e+01      -1.03800e+01       5.53665e-04       3.96789e+02
  7.600      2.49027e+02       1.17826e+01      -1.04093e+01       5.47731e-04       3.91467e+02
  7.700      2.48341e+02       1.18219e+01      -1.04228e+01       5.41863e-04       3.86207e+02
  7.800      2.47649e+02       1.18378e+01      -1.04232e+01       5.36049e-04       3.80998e+02
  7.900      2.46949e+02       1.18298e+01      -1.04131e+01       5.30279e-04       3.75832e+02
  8.000      2.46240e+02       1.17976e+01      -1.03954e+01       5.24545e-04       3.70701e+02
  8.100      2.45521e+02       1.17408e+01      -1.03729e+01       5.18836e-04       3.65596e+02
  8.200      2.44791e+02       1.16589e+01      -1.03481e+01       5.13145e-04       3.60510e+02
  8.300      2.44048e+02       1.15516e+01      -1.03240e+01       5.07462e-04       3.55435e+02
  8.400      2.43291e+02       1.14185e+01      -1.03032e+01       5.01781e-04       3.50366e+02
  8.500      2.42521e+02       1.12599e+01      -1.02883e+01       4.96097e-04       3.45301e+02
  8.600      2.41740e+02       1.10803e+01      -1.02805e+01       4.90432e-04       3.40259e+02
  8.700      2.40952e+02       1.08853e+01      -1.02809e+01       4.84813e-04       3.35265e+02
  8.800      2.40163e+02       1.06808e+01      -1.02904e+01       4.79266e-04       3.30343e+02
  8.900      2.39377e+02       1.04722e+01      -1.03098e+01       4.73814e-04       3.25516e+02
  9.000      2.38597e+02       1.02654e+01      -1.03403e+01       4.68481e-04       3.20804e+02
  9.100      2.37830e+02       1.00659e+01      -1.03827e+01       4.63288e-04       3.16227e+02
  9.200      2.37078e+02       9.87955e+00      -1.04379e+01       4.58256e-04       3.11804e+02
  9.300      2.36346e+02       9.71190e+00      -1.05069e+01       4.53406e-04       3.07551e+02
  9.400      2.35640e+02       9.56867e+00      -1.05907e+01       4.48755e-04       3.03487e+02
  9.500      2.34963e+02       9.45553e+00      -1.06902e+01       4.44321e-04       2.99625e+02
  9.600      2.34318e+02       9.37659e+00      -1.08049e+01       4.40113e-04       2.95973e+02
  9.700      2.33706e+02       9.33127e+00      -1.09297e+01       4.36105e-04       2.92511e+02
  9.800      2.33125e+02       9.31816e+00      -1.10589e+01       4.32272e-04       2.89220e+02
  9.900      2.32574e+02       9.33582e+00      -1.11866e+01       4.28587e-04       2.86076e+02
 10.000      2.32052e+02       9.38282e+00      -1.13070e+01       4.25023e-04       2.83061e+02
 10.100      2.31559e+02       9.45772e+00      -1.14144e+01       4.21556e-04       2.80155e+02
 10.200      2.31093e+02       9.55910e+00      -1.15027e+01       4.18162e-04       2.77340e+02
 10.300      2.30653e+02       9.68553e+00      -1.15664e+01       4.14818e-04       2.74599e+02
 10.400      2.30238e+02       9.83556e+00      -1.15995e+01       4.11503e-04       2.71914e+02
 10.500      2.29847e+02       1.00078e+01      -1.15961e+01       4.08194e-04       2.69270e+02
 10.600      2.29480e+02       1.02008e+01      -1.15506e+01       4.04869e-04       2.66650e+02
 10.700      2.29135e+02       1.04130e+01      -1.14571e+01       4.01511e-04       2.64040e+02
 10.800      2.28811e+02       1.06432e+01      -1.13098e+01       3.98098e-04       2.61425e+02
 10.900      2.28507e+02       1.08898e+01      -1.11027e+01       3.94612e-04       2.58792e+02
 11.000      2.28222e+02       1.11515e+01      -1.08303e+01       3.91035e-04       2.56127e+02
 11.100      2.27955e+02       1.14268e+01      -1.04865e+01       3.87350e-04       2.53417e+02
 11.200      2.27706e+02       1.17142e+01      -1.00656e+01       3.83542e-04       2.50651e+02
 11.300      2.27473e+02       1.20122e+01      -9.56318e+00       3.79595e-04       2.47817e+02
 11.400      2.27253e+02       1.23182e+01      -8.98615e+00       3.75513e-04       2.44915e+02
 11.500      2.27043e+02       1.26290e+01      -8.34702e+00       3.71306e-04       2.41948e+02
 11.600      2.26840e+02       1.29416e+01      -7.65833e+00       3.66984e-04       2.38917e+02
 11.700      2.26640e+02       1.32527e+01      -6.93262e+00       3.62556e-04       2.35827e+02
 11.800      2.26440e+02       1.35592e+01      -6.18244e+00       3.58033e-04       2.32680e+02
 11.900      2.26238e+02       1.38580e+01      -5.42031e+00       3.53423e-04       2.29479e+02
 12.000      2.26029e+02       1.41459e+01      -4.65879e+00       3.48737e-04       2.26227e+02
 12.100      2.25810e+02       1.44198e+01      -3.91041e+00       3.43983e-04       2.22927e+02
 12.200      2.25578e+02       1.46765e+01      -3.18772e+00       3.39171e-04       2.19583e+02
 12.300      2.25330e+02       1.49130e+01      -2.50325e+00       3.34310e-04       2.16197e+02
 12.400      2.25062e+02       1.51260e+01      -1.86955e+00       3.29407e-04       2.12773e+02
 12.500      2.24771e+02       1.53124e+01      -1.29915e+00       3.24471e-04       2.09314e+02
 12.600      2.24454e+02       1.54691e+01      -8.04607e-01       3.19510e-04       2.05823e+02
 12.700      2.24108e+02       1.55930e+01      -3.98452e-01       3.14532e-04       2.02304e+02
 12.800      2.23729e+02       1.56808e+01      -9.30626e-02       3.09545e-04       1.98759e+02
 12.900      2.23316e+02       1.57316e+01       1.07843e-01       3.04557e-04       1.95196e+02
 13.000      2.22873e+02       1.57471e+01       2.13428e-01       2.99579e-04       1.91625e+02
 13.100      2.22405e+02       1.57294e+01       2.33893e-01       2.94623e-04       1.88059e+02
 13.200      2.21914e+02       1.56807e+01       1.79441e-01       2.89699e-04       1.84507e+02
 13.300      2.21404e+02       1.56028e+01       6.02770e-02       2.84815e-04       1.80980e+02
 13.400      2.20879e+02       1.54981e+01      -1.13396e-01       2.79982e-04       1.77487e+02
 13.500      2.20344e+02       1.53684e+01      -3.31378e-01       2.75206e-04       1.74037e+02
 13.600      2.19801e+02       1.52159e+01      -5.83463e-01       2.70496e-04       1.70637e+02
 13.700      2.19254e+02       1.50427e+01      -8.59447e-01       2.65858e-04       1.67294e+02
 13.800      2.18708e+02       1.48508e+01      -1.14913e+00       2.61300e-04       1.64016e+02
 13.900      2.18166e+02       1.46423e+01      -1.44230e+00       2.56827e-04       1.60808e+02
 14.000      2.17632e+02       1.44193e+01      -1.72877e+00       2.52443e-04       1.57677e+02
 14.100      2.17109e+02       1.41838e+01      -1.99833e+00       2.48155e-04       1.54626e+02
 14.200      2.16601e+02       1.39380e+01      -2.24077e+00       2.43967e-04       1.51661e+02
 14.300      2.16112e+02       1.36838e+01      -2.44605e+00       2.39883e-04       1.48785e+02
 14.400      2.15645e+02       1.34227e+01      -2.60951e+00       2.35902e-04       1.46000e+02
 14.500      2.15198e+02       1.31550e+01      -2.73303e+00       2.32020e-04       1.43299e+02
 14.600      2.14771e+02       1.28813e+01      -2.81887e+00       2.28232e-04       1.40681e+02
 14.700      2.14365e+02       1.26019e+01      -2.86928e+00       2.24535e-04       1.38140e+02
 14.800      2.13978e+02       1.23172e+01      -2.88652e+00       2.20924e-04       1.35674e+02
 14.900      2.13611e+02       1.20278e+01      -2.87287e+00       2.17396e-04       1.33278e+02
 15.000      2.13263e+02       1.17340e+01      -2.83059e+00       2.13946e-04       1.30949e+02
 15.100      2.12934e+02       1.14362e+01      -2.76192e+00       2.10571e-04       1.28684e+02
 15.200      2.12624e+02       1.11349e+01      -2.66914e+00       2.07268e-04       1.26481e+02
 15.300      2.12331e+02       1.08305e+01      -2.55451e+00       2.04033e-04       1.24336e+02
 15.400      2.12056e+02       1.05234e+01      -2.42029e+00       2.00864e-04       1.22246e+02
 15.500      2.11799e+02       1.02140e+01      -2.26874e+00       1.97757e-04       1.20210e+02
 15.600      2.11559e+02       9.90282e+00      -2.10212e+00       1.94710e-04       1.18223e+02
 15.700      2.11336e+02       9.59021e+00      -1.92270e+00       1.91720e-04       1.16285e+02
 15.800      2.11130e+02       9.27662e+00      -1.73274e+00       1.88784e-04       1.14392e+02
 15.900      2.10940e+02       8.96246e+00      -1.53450e+00       1.85900e-04       1.12543e+02
 16.000      2.10765e+02       8.64817e+00      -1.33023e+00       1.83065e-04       1.10736e+02
 16.100      2.10607e+02       8.33416e+00      -1.12221e+00       1.80278e-04       1.08967e+02
 16.200      2.10463e+02       8.02087e+00      -9.12688e-01       1.77536e-04       1.07237e+02
 16.300      2.10334e+02       7.70872e+00      -7.03940e-01       1.74837e-04       1.05542e+02
 16.400      2.10220e+02       7.39813e+00      -4.98215e-01       1.72180e-04       1.03882e+02
 16.500      2.10121e+02       7.08953e+00      -2.97780e-01       1.69561e-04       1.02253e+02
 16.600      2.10035e+02       6.78334e+00      -1.04897e-01       1.66981e-04       1.00656e+02
 16.700      2.09963e+02       6.47996e+00       7.82555e-02       1.64436e-04       9.90880e+01
 16.800      2.09904e+02       6.17958e+00       2.50826e-01       1.61926e-04       9.75481e+01
 16.900      2.09859e+02       5.88214e+00       4.13038e-01       1.59449e-04       9.60353e+01
 17.000      2.09826e+02       5.58760e+00       5.65139e-01       1.57005e-04       9.45486e+01
 17.100      2.09807e+02       5.29592e+00       7.07377e-01       1.54593e-04       9.30871e+01
 17.200      2.09800e+02       5.00707e+00       8.40001e-01       1.52211e-04       9.16499e+01
 17.300      2.09805e+02       4.72099e+00       9.63257e-01       1.49859e-04       9.02362e+01
 17.400      2.09823e+02       4.43765e+00       1.07740e+00       1.47536e-04       8.88450e+01
 17.500      2.09853e+02       4.15700e+00       1.18267e+00       1.45242e-04       8.74756e+01
 17.600      2.09894e+02       3.87901e+00       1.27933e+00       1.42974e-04       8.61273e+01
 17.700      2.09948e+02       3.60362e+00       1.36761e+00       1.40734e-04       8.47993e+01
 17.800      2.10013e+02       3.33081e+00       1.44778e+00       1.38520e-04       8.34909e+01
 17.900      2.10089e+02       3.06052e+00       1.52007e+00       1.36331e-04       8.22014e+01
 18.000      2.10176e+02       2.79271e+00       1.58474e+00       1.34167e-04       8.09302e+01
 18.100      2.10275e+02       2.52734e+00       1.64203e+00       1.32027e-04       7.96766e+01
 18.200      2.10384e+02       2.26437e+00       1.69220e+00       1.29910e-04       7.84402e+01
 18.300      2.10504e+02       2.00377e+00       1.73549e+00       1.27817e-04       7.72203e+01
 18.400      2.10634e+02       1.74547e+00       1.77215e+00       1.25746e-04       7.60163e+01
 18.500      2.10775e+02       1.48945e+00       1.80243e+00       1.23698e-04       7.48278e+01
 18.600      2.10925e+02       1.23566e+00       1.82659e+00       1.21671e-04       7.36543e+01
 18.700      2.11086e+02       9.84057e-01       1.84486e+00       1.19666e-04       7.24953e+01
 18.800      2.11256e+02       7.34607e-01       1.85750e+00       1.17681e-04       7.13503e+01
 18.900      2.11435e+02       4.87256e-01       1.86475e+00       1.15716e-04       7.02190e+01
 19.000      2.11624e+02       2.41992e-01       1.86688e+00       1.13772e-04       6.91009e+01
 19.100      2.11822e+02      -1.03325e-03       1.86423e+00       1.11849e-04       6.79963e+01
 19.200      2.12026e+02      -2.41593e-01       1.85719e+00       1.09949e-04       6.69055e+01
 19.300      2.12238e+02      -4.79454e-01       1.84612e+00       1.08071e-04       6.58288e+01
 19.400      2.12456e+02      -7.14398e-01       1.83142e+00       1.06219e-04       6.47666e+01
 19.500      2.12678e+02      -9.46192e-01       1.81347e+00       1.04391e-04       6.37191e+01
 19.600      2.12905e+02      -1.17461e+00       1.79265e+00       1.02591e-04       6.26867e+01
 19.700      2.13135e+02      -1.39942e+00       1.76933e+00       1.00817e-04       6.16694e+01
 19.800      2.13367e+02      -1.62039e+00       1.74391e+00       9.90715e-05       6.06676e+01
 19.900      2.13600e+02      -1.83731e+00       1.71676e+00       9.73545e-05       5.96814e+01
 20.000      2.13834e+02      -2.04993e+00       1.68826e+00       9.56667e-05       5.87109e+01
 20.100      2.14067e+02      -2.25804e+00       1.65880e+00       9.40086e-05       5.77563e+01
 20.200      2.14299e+02      -2.46141e+00       1.62875e+00       9.23808e-05       5.68177e+01
 20.300      2.14529e+02      -2.65979e+00       1.59851e+00       9.07835e-05       5.58952e+01
