# Data Source: NASA MERRA (version 1)
# Model Time = 2010-07-17 18:00:00
# Location = [  39.7393, -104.9900 ]
# Fields = [ Z(km), T(K), U(m/s), V(m/s), R(g/cm3), P(mbar) ]
# Ground Height = 1.589
  0.000      3.17354e+02       4.43733e-01       2.61496e+00       1.11142e-03       1.01229e+03
  0.100      3.16725e+02       4.01759e-01       2.66832e+00       1.10064e-03       1.00048e+03
  0.200      3.16097e+02       3.58918e-01       2.72180e+00       1.08996e-03       9.88807e+02
  0.300      3.15453e+02       3.36469e-01       2.77237e+00       1.07946e-03       9.77287e+02
  0.400      3.14780e+02       3.50727e-01       2.81560e+00       1.06920e-03       9.65932e+02
  0.500      3.14100e+02       3.81456e-01       2.83668e+00       1.05910e-03       9.54741e+02
  0.600      3.13448e+02       3.94042e-01       2.81779e+00       1.04904e-03       9.43708e+02
  0.700      3.12811e+02       3.87493e-01       2.76843e+00       1.03905e-03       9.32826e+02
  0.800      3.12142e+02       3.88550e-01       2.72058e+00       1.02930e-03       9.22096e+02
  0.900      3.11427e+02       4.06282e-01       2.69071e+00       1.01982e-03       9.11513e+02
  1.000      3.10719e+02       4.15893e-01       2.66563e+00       1.01044e-03       9.01076e+02
  1.100      3.10072e+02       3.94639e-01       2.63175e+00       1.00098e-03       8.90782e+02
  1.200      3.09474e+02       3.50761e-01       2.59056e+00       9.91487e-04       8.80631e+02
  1.300      3.08898e+02       3.03046e-01       2.54867e+00       9.82048e-04       8.70621e+02
  1.400      3.08312e+02       2.70292e-01       2.51269e+00       9.72762e-04       8.60753e+02
  1.500      3.07688e+02       2.71297e-01       2.48923e+00       9.63720e-04       8.51027e+02
  1.600      3.07001e+02       3.20316e-01       2.48336e+00       9.54998e-04       8.41441e+02
  1.700      3.06251e+02       4.06554e-01       2.49150e+00       9.46577e-04       8.31985e+02
  1.800      3.05449e+02       5.10623e-01       2.50717e+00       9.38411e-04       8.22647e+02
  1.900      3.04604e+02       6.13130e-01       2.52384e+00       9.30453e-04       8.13415e+02
  2.000      3.03727e+02       6.94678e-01       2.53500e+00       9.22659e-04       8.04280e+02
  2.100      3.02828e+02       7.36654e-01       2.53437e+00       9.14987e-04       7.95230e+02
  2.200      3.01913e+02       7.36219e-01       2.52026e+00       9.07409e-04       7.86261e+02
  2.300      3.00988e+02       7.05196e-01       2.49526e+00       8.99907e-04       7.77372e+02
  2.400      3.00059e+02       6.55961e-01       2.46211e+00       8.92467e-04       7.68565e+02
  2.500      2.99131e+02       6.00892e-01       2.42355e+00       8.85073e-04       7.59840e+02
  2.600      2.98208e+02       5.52367e-01       2.38233e+00       8.77711e-04       7.51196e+02
  2.700      2.97296e+02       5.21174e-01       2.34061e+00       8.70369e-04       7.42634e+02
  2.800      2.96390e+02       5.08410e-01       2.29693e+00       8.63059e-04       7.34152e+02
  2.900      2.95483e+02       5.11521e-01       2.24848e+00       8.55797e-04       7.25747e+02
  3.000      2.94568e+02       5.27944e-01       2.19246e+00       8.48602e-04       7.17418e+02
  3.100      2.93639e+02       5.55115e-01       2.12606e+00       8.41492e-04       7.09161e+02
  3.200      2.92687e+02       5.90473e-01       2.04645e+00       8.34483e-04       7.00976e+02
  3.300      2.91709e+02       6.31578e-01       1.95177e+00       8.27587e-04       6.92859e+02
  3.400      2.90708e+02       6.76697e-01       1.84547e+00       8.20789e-04       6.84811e+02
  3.500      2.89693e+02       7.24349e-01       1.73295e+00       8.14065e-04       6.76830e+02
  3.600      2.88673e+02       7.73053e-01       1.61959e+00       8.07390e-04       6.68916e+02
  3.700      2.87655e+02       8.21330e-01       1.51076e+00       8.00742e-04       6.61069e+02
  3.800      2.86648e+02       8.67698e-01       1.41186e+00       7.94097e-04       6.53289e+02
  3.900      2.85660e+02       9.10731e-01       1.32784e+00       7.87434e-04       6.45574e+02
  4.000      2.84692e+02       9.49893e-01       1.25687e+00       7.80750e-04       6.37925e+02
  4.100      2.83739e+02       9.85384e-01       1.19151e+00       7.74061e-04       6.30341e+02
  4.200      2.82795e+02       1.01742e+00       1.12413e+00       7.67379e-04       6.22822e+02
  4.300      2.81857e+02       1.04623e+00       1.04713e+00       7.60719e-04       6.15368e+02
  4.400      2.80918e+02       1.07203e+00       9.52898e-01       7.54095e-04       6.07978e+02
  4.500      2.79975e+02       1.09504e+00       8.33816e-01       7.47520e-04       6.00653e+02
  4.600      2.79023e+02       1.11565e+00       6.83299e-01       7.41004e-04       5.93393e+02
  4.700      2.78062e+02       1.13509e+00       5.00133e-01       7.34545e-04       5.86195e+02
  4.800      2.77096e+02       1.15488e+00       2.84856e-01       7.28135e-04       5.79061e+02
  4.900      2.76127e+02       1.17654e+00       3.80113e-02       7.21767e-04       5.71990e+02
  5.000      2.75158e+02       1.20159e+00      -2.39861e-01       7.15435e-04       5.64982e+02
  5.100      2.74191e+02       1.23155e+00      -5.48220e-01       7.09131e-04       5.58036e+02
  5.200      2.73229e+02       1.26793e+00      -8.86525e-01       7.02849e-04       5.51151e+02
  5.300      2.72274e+02       1.31262e+00      -1.25289e+00       6.96583e-04       5.44328e+02
  5.400      2.71330e+02       1.36987e+00      -1.63644e+00       6.90322e-04       5.37566e+02
  5.500      2.70402e+02       1.44493e+00      -2.02260e+00       6.84057e-04       5.30865e+02
  5.600      2.69494e+02       1.54302e+00      -2.39681e+00       6.77778e-04       5.24225e+02
  5.700      2.68609e+02       1.66941e+00      -2.74450e+00       6.71475e-04       5.17646e+02
  5.800      2.67753e+02       1.82932e+00      -3.05110e+00       6.65139e-04       5.11127e+02
  5.900      2.66930e+02       2.02801e+00      -3.30204e+00       6.58761e-04       5.04669e+02
  6.000      2.66143e+02       2.27066e+00      -3.48283e+00       6.52332e-04       4.98271e+02
  6.100      2.65394e+02       2.55860e+00      -3.58843e+00       6.45852e-04       4.91934e+02
  6.200      2.64680e+02       2.88601e+00      -3.63105e+00       6.39334e-04       4.85658e+02
  6.300      2.63994e+02       3.24631e+00      -3.62476e+00       6.32792e-04       4.79443e+02
  6.400      2.63332e+02       3.63293e+00      -3.58363e+00       6.26242e-04       4.73291e+02
  6.500      2.62690e+02       4.03928e+00      -3.52173e+00       6.19696e-04       4.67202e+02
  6.600      2.62063e+02       4.45879e+00      -3.45311e+00       6.13169e-04       4.61177e+02
  6.700      2.61445e+02       4.88488e+00      -3.39186e+00       6.06674e-04       4.55216e+02
  6.800      2.60833e+02       5.31097e+00      -3.35203e+00       6.00222e-04       4.49320e+02
  6.900      2.60221e+02       5.73275e+00      -3.34113e+00       5.93825e-04       4.43489e+02
  7.000      2.59610e+02       6.15232e+00      -3.34807e+00       5.87483e-04       4.37722e+02
  7.100      2.58997e+02       6.57290e+00      -3.35850e+00       5.81198e-04       4.32017e+02
  7.200      2.58383e+02       6.99772e+00      -3.35807e+00       5.74971e-04       4.26375e+02
  7.300      2.57766e+02       7.43000e+00      -3.33242e+00       5.68802e-04       4.20793e+02
  7.400      2.57145e+02       7.87297e+00      -3.26720e+00       5.62692e-04       4.15270e+02
  7.500      2.56520e+02       8.32985e+00      -3.14804e+00       5.56642e-04       4.09807e+02
  7.600      2.55889e+02       8.80388e+00      -2.96060e+00       5.50653e-04       4.04401e+02
  7.700      2.55253e+02       9.29826e+00      -2.69055e+00       5.44724e-04       3.99052e+02
  7.800      2.54610e+02       9.81319e+00      -2.33333e+00       5.38857e-04       3.93759e+02
  7.900      2.53960e+02       1.03417e+01      -1.90754e+00       5.33051e-04       3.88522e+02
  8.000      2.53304e+02       1.08758e+01      -1.43513e+00       5.27303e-04       3.83340e+02
  8.100      2.52643e+02       1.14074e+01      -9.38065e-01       5.21613e-04       3.78214e+02
  8.200      2.51977e+02       1.19285e+01      -4.38307e-01       5.15979e-04       3.73142e+02
  8.300      2.51306e+02       1.24311e+01       4.21945e-02       5.10400e-04       3.68125e+02
  8.400      2.50630e+02       1.29073e+01       4.81472e-01       5.04876e-04       3.63161e+02
  8.500      2.49950e+02       1.33489e+01       8.57575e-01       4.99404e-04       3.58251e+02
  8.600      2.49267e+02       1.37479e+01       1.14854e+00       4.93984e-04       3.53395e+02
  8.700      2.48581e+02       1.40965e+01       1.33256e+00       4.88615e-04       3.48591e+02
  8.800      2.47891e+02       1.43926e+01       1.40045e+00       4.83296e-04       3.43840e+02
  8.900      2.47199e+02       1.46442e+01       1.36468e+00       4.78026e-04       3.39141e+02
  9.000      2.46503e+02       1.48606e+01       1.23987e+00       4.72806e-04       3.34493e+02
  9.100      2.45804e+02       1.50508e+01       1.04067e+00       4.67635e-04       3.29897e+02
  9.200      2.45102e+02       1.52239e+01       7.81695e-01       4.62513e-04       3.25351e+02
  9.300      2.44396e+02       1.53891e+01       4.77568e-01       4.57439e-04       3.20855e+02
  9.400      2.43686e+02       1.55555e+01       1.42922e-01       4.52413e-04       3.16408e+02
  9.500      2.42973e+02       1.57322e+01      -2.07622e-01       4.47435e-04       3.12011e+02
  9.600      2.42255e+02       1.59283e+01      -5.59434e-01       4.42506e-04       3.07662e+02
  9.700      2.41534e+02       1.61529e+01      -8.97885e-01       4.37623e-04       3.03362e+02
  9.800      2.40808e+02       1.64152e+01      -1.20838e+00       4.32788e-04       2.99109e+02
  9.900      2.40079e+02       1.67202e+01      -1.48121e+00       4.27999e-04       2.94903e+02
 10.000      2.39346e+02       1.70639e+01      -1.71728e+00       4.23256e-04       2.90744e+02
 10.100      2.38610e+02       1.74416e+01      -1.91888e+00       4.18555e-04       2.86631e+02
 10.200      2.37873e+02       1.78481e+01      -2.08829e+00       4.13896e-04       2.82565e+02
 10.300      2.37134e+02       1.82785e+01      -2.22782e+00       4.09277e-04       2.78544e+02
 10.400      2.36395e+02       1.87278e+01      -2.33974e+00       4.04696e-04       2.74568e+02
 10.500      2.35657e+02       1.91911e+01      -2.42635e+00       4.00152e-04       2.70637e+02
 10.600      2.34920e+02       1.96634e+01      -2.48994e+00       3.95643e-04       2.66751e+02
 10.700      2.34185e+02       2.01396e+01      -2.53280e+00       3.91168e-04       2.62908e+02
 10.800      2.33453e+02       2.06148e+01      -2.55721e+00       3.86725e-04       2.59109e+02
 10.900      2.32724e+02       2.10841e+01      -2.56547e+00       3.82314e-04       2.55354e+02
 11.000      2.31999e+02       2.15424e+01      -2.55987e+00       3.77933e-04       2.51642e+02
 11.100      2.31280e+02       2.19848e+01      -2.54266e+00       3.73580e-04       2.47972e+02
 11.200      2.30566e+02       2.24074e+01      -2.51549e+00       3.69255e-04       2.44344e+02
 11.300      2.29857e+02       2.28067e+01      -2.47949e+00       3.64957e-04       2.40759e+02
 11.400      2.29156e+02       2.31797e+01      -2.43577e+00       3.60687e-04       2.37215e+02
 11.500      2.28460e+02       2.35231e+01      -2.38543e+00       3.56443e-04       2.33713e+02
 11.600      2.27772e+02       2.38337e+01      -2.32957e+00       3.52227e-04       2.30253e+02
 11.700      2.27091e+02       2.41082e+01      -2.26932e+00       3.48036e-04       2.26833e+02
 11.800      2.26418e+02       2.43434e+01      -2.20577e+00       3.43872e-04       2.23455e+02
 11.900      2.25752e+02       2.45361e+01      -2.14004e+00       3.39734e-04       2.20117e+02
 12.000      2.25095e+02       2.46831e+01      -2.07322e+00       3.35621e-04       2.16819e+02
 12.100      2.24447e+02       2.47812e+01      -2.00643e+00       3.31533e-04       2.13562e+02
 12.200      2.23808e+02       2.48270e+01      -1.94078e+00       3.27471e-04       2.10344e+02
 12.300      2.23178e+02       2.48175e+01      -1.87737e+00       3.23434e-04       2.07166e+02
 12.400      2.22557e+02       2.47494e+01      -1.81730e+00       3.19421e-04       2.04027e+02
 12.500      2.21947e+02       2.46194e+01      -1.76170e+00       3.15433e-04       2.00928e+02
 12.600      2.21347e+02       2.44249e+01      -1.71161e+00       3.11470e-04       1.97867e+02
 12.700      2.20757e+02       2.41681e+01      -1.66767e+00       3.07532e-04       1.94844e+02
 12.800      2.20176e+02       2.38544e+01      -1.63025e+00       3.03621e-04       1.91860e+02
 12.900      2.19602e+02       2.34891e+01      -1.59970e+00       2.99739e-04       1.88913e+02
 13.000      2.19035e+02       2.30777e+01      -1.57639e+00       2.95887e-04       1.86003e+02
 13.100      2.18473e+02       2.26254e+01      -1.56068e+00       2.92066e-04       1.83131e+02
 13.200      2.17916e+02       2.21377e+01      -1.55294e+00       2.88278e-04       1.80295e+02
 13.300      2.17362e+02       2.16200e+01      -1.55352e+00       2.84525e-04       1.77495e+02
 13.400      2.16810e+02       2.10775e+01      -1.56280e+00       2.80807e-04       1.74731e+02
 13.500      2.16260e+02       2.05158e+01      -1.58112e+00       2.77125e-04       1.72002e+02
 13.600      2.15709e+02       1.99400e+01      -1.60886e+00       2.73481e-04       1.69308e+02
 13.700      2.15158e+02       1.93557e+01      -1.64637e+00       2.69876e-04       1.66649e+02
 13.800      2.14604e+02       1.87682e+01      -1.69403e+00       2.66311e-04       1.64025e+02
 13.900      2.14048e+02       1.81828e+01      -1.75218e+00       2.62787e-04       1.61434e+02
 14.000      2.13487e+02       1.76049e+01      -1.82120e+00       2.59304e-04       1.58878e+02
 14.100      2.12921e+02       1.70400e+01      -1.90145e+00       2.55864e-04       1.56354e+02
 14.200      2.12349e+02       1.64933e+01      -1.99329e+00       2.52467e-04       1.53864e+02
 14.300      2.11769e+02       1.59702e+01      -2.09708e+00       2.49114e-04       1.51406e+02
 14.400      2.11181e+02       1.54761e+01      -2.21316e+00       2.45806e-04       1.48980e+02
 14.500      2.10585e+02       1.50128e+01      -2.34109e+00       2.42542e-04       1.46587e+02
 14.600      2.09984e+02       1.45783e+01      -2.47947e+00       2.39318e-04       1.44226e+02
 14.700      2.09381e+02       1.41702e+01      -2.62684e+00       2.36131e-04       1.41897e+02
 14.800      2.08780e+02       1.37861e+01      -2.78173e+00       2.32978e-04       1.39600e+02
 14.900      2.08183e+02       1.34239e+01      -2.94268e+00       2.29856e-04       1.37335e+02
 15.000      2.07593e+02       1.30809e+01      -3.10824e+00       2.26762e-04       1.35103e+02
 15.100      2.07013e+02       1.27551e+01      -3.27695e+00       2.23693e-04       1.32902e+02
 15.200      2.06447e+02       1.24439e+01      -3.44733e+00       2.20646e-04       1.30733e+02
 15.300      2.05897e+02       1.21450e+01      -3.61794e+00       2.17620e-04       1.28596e+02
 15.400      2.05365e+02       1.18562e+01      -3.78730e+00       2.14610e-04       1.26491e+02
 15.500      2.04857e+02       1.15749e+01      -3.95397e+00       2.11616e-04       1.24417e+02
 15.600      2.04373e+02       1.12990e+01      -4.11648e+00       2.08635e-04       1.22375e+02
 15.700      2.03918e+02       1.10260e+01      -4.27336e+00       2.05665e-04       1.20364e+02
 15.800      2.03494e+02       1.07537e+01      -4.42316e+00       2.02703e-04       1.18384e+02
 15.900      2.03104e+02       1.04796e+01      -4.56442e+00       1.99749e-04       1.16435e+02
 16.000      2.02751e+02       1.02013e+01      -4.69567e+00       1.96799e-04       1.14517e+02
 16.100      2.02439e+02       9.91668e+00      -4.81546e+00       1.93853e-04       1.12629e+02
 16.200      2.02170e+02       9.62323e+00      -4.92233e+00       1.90910e-04       1.10771e+02
 16.300      2.01947e+02       9.31865e+00      -5.01480e+00       1.87967e-04       1.08943e+02
 16.400      2.01773e+02       9.00058e+00      -5.09143e+00       1.85024e-04       1.07145e+02
 16.500      2.01652e+02       8.66668e+00      -5.15075e+00       1.82080e-04       1.05377e+02
 16.600      2.01586e+02       8.31460e+00      -5.19130e+00       1.79134e-04       1.03638e+02
 16.700      2.01579e+02       7.94199e+00      -5.21163e+00       1.76185e-04       1.01928e+02
 16.800      2.01632e+02       7.54652e+00      -5.21026e+00       1.73233e-04       1.00247e+02
 16.900      2.01749e+02       7.12631e+00      -5.18600e+00       1.70278e-04       9.85943e+01
 17.000      2.01927e+02       6.68268e+00      -5.13927e+00       1.67324e-04       9.69697e+01
 17.100      2.02161e+02       6.21810e+00      -5.07115e+00       1.64378e-04       9.53728e+01
 17.200      2.02447e+02       5.73511e+00      -4.98269e+00       1.61445e-04       9.38032e+01
 17.300      2.02780e+02       5.23619e+00      -4.87496e+00       1.58530e-04       9.22606e+01
 17.400      2.03154e+02       4.72385e+00      -4.74901e+00       1.55637e-04       9.07445e+01
 17.500      2.03566e+02       4.20059e+00      -4.60591e+00       1.52771e-04       8.92545e+01
 17.600      2.04011e+02       3.66892e+00      -4.44673e+00       1.49937e-04       8.77902e+01
 17.700      2.04485e+02       3.13134e+00      -4.27252e+00       1.47139e-04       8.63513e+01
 17.800      2.04981e+02       2.59038e+00      -4.08436e+00       1.44379e-04       8.49375e+01
 17.900      2.05497e+02       2.04850e+00      -3.88329e+00       1.41661e-04       8.35481e+01
 18.000      2.06027e+02       1.50823e+00      -3.67039e+00       1.38987e-04       8.21830e+01
 18.100      2.06567e+02       9.72067e-01      -3.44671e+00       1.36362e-04       8.08419e+01
 18.200      2.07111e+02       4.42522e-01      -3.21333e+00       1.33787e-04       7.95241e+01
 18.300      2.07656e+02      -7.78944e-02      -2.97130e+00       1.31263e-04       7.82296e+01
 18.400      2.08197e+02      -5.86697e-01      -2.72169e+00       1.28794e-04       7.69578e+01
 18.500      2.08728e+02      -1.08137e+00      -2.46555e+00       1.26381e-04       7.57084e+01
 18.600      2.09246e+02      -1.55941e+00      -2.20395e+00       1.24024e-04       7.44810e+01
 18.700      2.09746e+02      -2.01832e+00      -1.93795e+00       1.21726e-04       7.32754e+01
 18.800      2.10223e+02      -2.45558e+00      -1.66863e+00       1.19487e-04       7.20913e+01
 18.900      2.10672e+02      -2.86870e+00      -1.39703e+00       1.17309e-04       7.09281e+01
 19.000      2.11089e+02      -3.25517e+00      -1.12423e+00       1.15191e-04       6.97856e+01
 19.100      2.11470e+02      -3.61362e+00      -8.51233e-01       1.13134e-04       6.86635e+01
 19.200      2.11818e+02      -3.94520e+00      -5.78981e-01       1.11136e-04       6.75613e+01
 19.300      2.12134e+02      -4.25146e+00      -3.08388e-01       1.09192e-04       6.64786e+01
 19.400      2.12420e+02      -4.53393e+00      -4.03576e-02       1.07300e-04       6.54152e+01
 19.500      2.12677e+02      -4.79415e+00       2.24190e-01       1.05459e-04       6.43704e+01
 19.600      2.12908e+02      -5.03364e+00       4.84342e-01       1.03665e-04       6.33441e+01
 19.700      2.13115e+02      -5.25394e+00       7.39183e-01       1.01916e-04       6.23358e+01
 19.800      2.13299e+02      -5.45658e+00       9.87796e-01       1.00210e-04       6.13451e+01
 19.900      2.13462e+02      -5.64310e+00       1.22928e+00       9.85444e-05       6.03718e+01
 20.000      2.13606e+02      -5.81503e+00       1.46270e+00       9.69180e-05       5.94154e+01
 20.100      2.13733e+02      -5.97390e+00       1.68717e+00       9.53285e-05       5.84757e+01
 20.200      2.13844e+02      -6.12125e+00       1.90175e+00       9.37741e-05       5.75522e+01
 20.300      2.13942e+02      -6.25861e+00       2.10553e+00       9.22532e-05       5.66448e+01
