# Data Source: NASA GEOS5 Near-Real-Time
# Model Time = 2010-06-09 18:00:00
# Location = [  39.7393, -104.9900 ]
# Fields = [ Z(km), T(K), U(m/s), V(m/s), R(g/cm3), P(mbar) ]
# Ground Height = 1.589
  0.000      3.08476e+02       1.54830e+00       3.39218e+00       1.14099e-03       1.01015e+03
  0.100      3.07858e+02       1.51851e+00       3.34297e+00       1.12994e-03       9.98362e+02
  0.200      3.07237e+02       1.48716e+00       3.29454e+00       1.11902e-03       9.86715e+02
  0.300      3.06594e+02       1.44312e+00       3.25242e+00       1.10828e-03       9.75205e+02
  0.400      3.05920e+02       1.38147e+00       3.21873e+00       1.09777e-03       9.63834e+02
  0.500      3.05239e+02       1.32357e+00       3.18117e+00       1.08741e-03       9.52608e+02
  0.600      3.04580e+02       1.29378e+00       3.12783e+00       1.07709e-03       9.41533e+02
  0.700      3.03936e+02       1.28402e+00       3.08160e+00       1.06684e-03       9.30602e+02
  0.800      3.03278e+02       1.27099e+00       3.08084e+00       1.05675e-03       9.19800e+02
  0.900      3.02604e+02       1.25096e+00       3.12127e+00       1.04681e-03       9.09124e+02
  1.000      3.01942e+02       1.24073e+00       3.15392e+00       1.03693e-03       8.98580e+02
  1.100      3.01312e+02       1.24785e+00       3.14215e+00       1.02707e-03       8.88171e+02
  1.200      3.00711e+02       1.25245e+00       3.08816e+00       1.01721e-03       8.77896e+02
  1.300      3.00132e+02       1.23287e+00       3.00420e+00       1.00740e-03       8.67753e+02
  1.400      2.99542e+02       1.19448e+00       2.93815e+00       9.97737e-04       8.57739e+02
  1.500      2.98893e+02       1.15784e+00       2.95787e+00       9.88378e-04       8.47853e+02
  1.600      2.98155e+02       1.13714e+00       3.09829e+00       9.79415e-04       8.38091e+02
  1.700      2.97336e+02       1.13258e+00       3.32415e+00       9.70804e-04       8.28440e+02
  1.800      2.96449e+02       1.14254e+00       3.59283e+00       9.62482e-04       8.18887e+02
  1.900      2.95524e+02       1.16439e+00       3.88247e+00       9.54341e-04       8.09427e+02
  2.000      2.94604e+02       1.19484e+00       4.18555e+00       9.46241e-04       8.00060e+02
  2.100      2.93724e+02       1.23453e+00       4.49108e+00       9.38077e-04       7.90788e+02
  2.200      2.92875e+02       1.30028e+00       4.77286e+00       9.29875e-04       7.81609e+02
  2.300      2.92039e+02       1.41303e+00       5.00071e+00       9.21696e-04       7.72521e+02
  2.400      2.91226e+02       1.59568e+00       5.13756e+00       9.13503e-04       7.63522e+02
  2.500      2.90503e+02       1.87467e+00       5.13378e+00       9.05091e-04       7.54613e+02
  2.600      2.89939e+02       2.27473e+00       4.94152e+00       8.96253e-04       7.45794e+02
  2.700      2.89526e+02       2.76830e+00       4.59225e+00       8.87028e-04       7.37067e+02
  2.800      2.89175e+02       3.27241e+00       4.20134e+00       8.77704e-04       7.28435e+02
  2.900      2.88796e+02       3.70617e+00       3.88340e+00       8.68560e-04       7.19901e+02
  3.000      2.88337e+02       4.06000e+00       3.68007e+00       8.59745e-04       7.11463e+02
  3.100      2.87778e+02       4.37935e+00       3.57671e+00       8.51304e-04       7.03113e+02
  3.200      2.87102e+02       4.70924e+00       3.55618e+00       8.43274e-04       6.94842e+02
  3.300      2.86325e+02       5.06914e+00       3.58695e+00       8.35588e-04       6.86648e+02
  3.400      2.85495e+02       5.46015e+00       3.62716e+00       8.28107e-04       6.78526e+02
  3.500      2.84653e+02       5.88309e+00       3.63669e+00       8.20700e-04       6.70474e+02
  3.600      2.83821e+02       6.34185e+00       3.60955e+00       8.13309e-04       6.62493e+02
  3.700      2.82997e+02       6.84286e+00       3.56877e+00       8.05939e-04       6.54584e+02
  3.800      2.82181e+02       7.39244e+00       3.53769e+00       7.98595e-04       6.46748e+02
  3.900      2.81370e+02       7.98965e+00       3.51966e+00       7.91284e-04       6.38986e+02
  4.000      2.80560e+02       8.62454e+00       3.49315e+00       7.84018e-04       6.31297e+02
  4.100      2.79747e+02       9.28662e+00       3.43509e+00       7.76808e-04       6.23678e+02
  4.200      2.78929e+02       9.96735e+00       3.33261e+00       7.69657e-04       6.16130e+02
  4.300      2.78107e+02       1.06630e+01       3.19729e+00       7.62561e-04       6.08651e+02
  4.400      2.77285e+02       1.13706e+01       3.04431e+00       7.55511e-04       6.01242e+02
  4.500      2.76465e+02       1.20870e+01       2.88836e+00       7.48502e-04       5.93902e+02
  4.600      2.75644e+02       1.28099e+01       2.74077e+00       7.41538e-04       5.86630e+02
  4.700      2.74821e+02       1.35368e+01       2.61147e+00       7.34628e-04       5.79428e+02
  4.800      2.73990e+02       1.42654e+01       2.51016e+00       7.27781e-04       5.72292e+02
  4.900      2.73156e+02       1.49930e+01       2.43542e+00       7.20987e-04       5.65224e+02
  5.000      2.72331e+02       1.57164e+01       2.37066e+00       7.14214e-04       5.58221e+02
  5.100      2.71526e+02       1.64322e+01       2.29816e+00       7.07428e-04       5.51284e+02
  5.200      2.70754e+02       1.71378e+01       2.20228e+00       7.00602e-04       5.44412e+02
  5.300      2.70015e+02       1.78345e+01       2.08179e+00       6.93734e-04       5.37605e+02
  5.400      2.69306e+02       1.85253e+01       1.94172e+00       6.86839e-04       5.30864e+02
  5.500      2.68624e+02       1.92133e+01       1.78709e+00       6.79927e-04       5.24191e+02
  5.600      2.67966e+02       1.98979e+01       1.62220e+00       6.73011e-04       5.17587e+02
  5.700      2.67328e+02       2.05682e+01       1.44923e+00       6.66096e-04       5.11050e+02
  5.800      2.66710e+02       2.12118e+01       1.26998e+00       6.59190e-04       5.04582e+02
  5.900      2.66108e+02       2.18159e+01       1.08627e+00       6.52300e-04       4.98181e+02
  6.000      2.65520e+02       2.23637e+01       8.99919e-01       6.45433e-04       4.91847e+02
  6.100      2.64942e+02       2.28304e+01       7.12689e-01       6.38598e-04       4.85580e+02
  6.200      2.64372e+02       2.31906e+01       5.26355e-01       6.31803e-04       4.79379e+02
  6.300      2.63805e+02       2.34191e+01       3.42810e-01       6.25056e-04       4.73243e+02
  6.400      2.63239e+02       2.35041e+01       1.74257e-01       6.18365e-04       4.67172e+02
  6.500      2.62669e+02       2.34578e+01       5.09801e-02       6.11737e-04       4.61164e+02
  6.600      2.62093e+02       2.32945e+01       5.09224e-03       6.05180e-04       4.55220e+02
  6.700      2.61507e+02       2.30288e+01       6.86923e-02       5.98700e-04       4.49339e+02
  6.800      2.60906e+02       2.26796e+01       2.60166e-01       5.92307e-04       4.43520e+02
  6.900      2.60288e+02       2.22787e+01       5.58651e-01       5.86007e-04       4.37762e+02
  7.000      2.59645e+02       2.18601e+01       9.36315e-01       5.79812e-04       4.32066e+02
  7.100      2.58975e+02       2.14577e+01       1.36532e+00       5.73730e-04       4.26429e+02
  7.200      2.58272e+02       2.11031e+01       1.81886e+00       5.67768e-04       4.20853e+02
  7.300      2.57539e+02       2.08051e+01       2.27919e+00       5.61919e-04       4.15335e+02
  7.400      2.56780e+02       2.05611e+01       2.73329e+00       5.56170e-04       4.09874e+02
  7.500      2.56000e+02       2.03681e+01       3.16818e+00       5.50508e-04       4.04469e+02
  7.600      2.55204e+02       2.02233e+01       3.57089e+00       5.44918e-04       3.99117e+02
  7.700      2.54396e+02       2.01230e+01       3.92841e+00       5.39391e-04       3.93818e+02
  7.800      2.53580e+02       2.00616e+01       4.22758e+00       5.33918e-04       3.88572e+02
  7.900      2.52759e+02       2.00335e+01       4.45525e+00       5.28494e-04       3.83379e+02
  8.000      2.51936e+02       2.00327e+01       4.59824e+00       5.23111e-04       3.78239e+02
  8.100      2.51115e+02       2.00535e+01       4.64372e+00       5.17764e-04       3.73153e+02
  8.200      2.50297e+02       2.00881e+01       4.59451e+00       5.12450e-04       3.68119e+02
  8.300      2.49481e+02       2.01266e+01       4.47579e+00       5.07170e-04       3.63139e+02
  8.400      2.48665e+02       2.01584e+01       4.31448e+00       5.01928e-04       3.58210e+02
  8.500      2.47848e+02       2.01733e+01       4.13745e+00       4.96726e-04       3.53333e+02
  8.600      2.47029e+02       2.01611e+01       3.97147e+00       4.91565e-04       3.48507e+02
  8.700      2.46207e+02       2.01181e+01       3.83356e+00       4.86447e-04       3.43731e+02
  8.800      2.45383e+02       2.00521e+01       3.72469e+00       4.81371e-04       3.39004e+02
  8.900      2.44556e+02       1.99717e+01       3.64431e+00       4.76335e-04       3.34328e+02
  9.000      2.43728e+02       1.98855e+01       3.59189e+00       4.71337e-04       3.29700e+02
  9.100      2.42898e+02       1.98021e+01       3.56689e+00       4.66377e-04       3.25120e+02
  9.200      2.42068e+02       1.97290e+01       3.56973e+00       4.61453e-04       3.20588e+02
  9.300      2.41237e+02       1.96679e+01       3.60498e+00       4.56566e-04       3.16104e+02
  9.400      2.40404e+02       1.96193e+01       3.67831e+00       4.51719e-04       3.11667e+02
  9.500      2.39568e+02       1.95834e+01       3.79541e+00       4.46911e-04       3.07278e+02
  9.600      2.38728e+02       1.95606e+01       3.96197e+00       4.42145e-04       3.02935e+02
  9.700      2.37884e+02       1.95511e+01       4.18344e+00       4.37422e-04       2.98640e+02
  9.800      2.37036e+02       1.95481e+01       4.45054e+00       4.32741e-04       2.94391e+02
  9.900      2.36186e+02       1.95330e+01       4.73015e+00       4.28098e-04       2.90188e+02
 10.000      2.35336e+02       1.94865e+01       4.98695e+00       4.23489e-04       2.86030e+02
 10.100      2.34487e+02       1.93890e+01       5.18566e+00       4.18909e-04       2.81917e+02
 10.200      2.33643e+02       1.92211e+01       5.29099e+00       4.14355e-04       2.77848e+02
 10.300      2.32805e+02       1.89634e+01       5.26788e+00       4.09824e-04       2.73824e+02
 10.400      2.31974e+02       1.86168e+01       5.10270e+00       4.05312e-04       2.69842e+02
 10.500      2.31151e+02       1.82160e+01       4.81868e+00       4.00820e-04       2.65905e+02
 10.600      2.30336e+02       1.77997e+01       4.44273e+00       3.96348e-04       2.62011e+02
 10.700      2.29529e+02       1.74061e+01       4.00174e+00       3.91895e-04       2.58161e+02
 10.800      2.28732e+02       1.70736e+01       3.52262e+00       3.87463e-04       2.54354e+02
 10.900      2.27944e+02       1.68407e+01       3.03227e+00       3.83050e-04       2.50591e+02
 11.000      2.27166e+02       1.67398e+01       2.55649e+00       3.78658e-04       2.46872e+02
 11.100      2.26396e+02       1.67651e+01       2.11412e+00       3.74289e-04       2.43197e+02
 11.200      2.25635e+02       1.68955e+01       1.72119e+00       3.69942e-04       2.39564e+02
 11.300      2.24880e+02       1.71101e+01       1.39372e+00       3.65621e-04       2.35974e+02
 11.400      2.24131e+02       1.73875e+01       1.14774e+00       3.61327e-04       2.32426e+02
 11.500      2.23387e+02       1.77069e+01       9.99276e-01       3.57062e-04       2.28920e+02
 11.600      2.22647e+02       1.80469e+01       9.64353e-01       3.52827e-04       2.25455e+02
 11.700      2.21909e+02       1.83879e+01       1.05382e+00       3.48624e-04       2.22032e+02
 11.800      2.21173e+02       1.87173e+01       1.24757e+00       3.44455e-04       2.18649e+02
 11.900      2.20437e+02       1.90253e+01       1.51408e+00       3.40322e-04       2.15306e+02
 12.000      2.19698e+02       1.93024e+01       1.82180e+00       3.36229e-04       2.12004e+02
 12.100      2.18956e+02       1.95386e+01       2.13918e+00       3.32177e-04       2.08741e+02
 12.200      2.18208e+02       1.97244e+01       2.43466e+00       3.28168e-04       2.05518e+02
 12.300      2.17454e+02       1.98499e+01       2.67670e+00       3.24204e-04       2.02333e+02
 12.400      2.16690e+02       1.99056e+01       2.83387e+00       3.20288e-04       1.99188e+02
 12.500      2.15917e+02       1.98904e+01       2.88752e+00       3.16420e-04       1.96080e+02
 12.600      2.15136e+02       1.98196e+01       2.84323e+00       3.12597e-04       1.93010e+02
 12.700      2.14347e+02       1.97105e+01       2.70929e+00       3.08817e-04       1.89977e+02
 12.800      2.13552e+02       1.95801e+01       2.49396e+00       3.05077e-04       1.86980e+02
 12.900      2.12752e+02       1.94457e+01       2.20552e+00       3.01375e-04       1.84019e+02
 13.000      2.11948e+02       1.93243e+01       1.85224e+00       2.97708e-04       1.81093e+02
 13.100      2.11142e+02       1.92332e+01       1.44240e+00       2.94075e-04       1.78203e+02
 13.200      2.10334e+02       1.91895e+01       9.84282e-01       2.90472e-04       1.75346e+02
 13.300      2.09528e+02       1.92066e+01       4.87271e-01       2.86896e-04       1.72523e+02
 13.400      2.08735e+02       1.92762e+01      -3.27321e-02       2.83331e-04       1.69735e+02
 13.500      2.07972e+02       1.93821e+01      -5.57518e-01       2.79759e-04       1.66983e+02
 13.600      2.07256e+02       1.95081e+01      -1.06886e+00       2.76162e-04       1.64268e+02
 13.700      2.06601e+02       1.96380e+01      -1.54853e+00       2.72522e-04       1.61591e+02
 13.800      2.06024e+02       1.97557e+01      -1.97832e+00       2.68824e-04       1.58953e+02
 13.900      2.05542e+02       1.98450e+01      -2.33999e+00       2.65051e-04       1.56355e+02
 14.000      2.05169e+02       1.98898e+01      -2.61533e+00       2.61188e-04       1.53797e+02
 14.100      2.04923e+02       1.98738e+01      -2.78611e+00       2.57224e-04       1.51281e+02
 14.200      2.04817e+02       1.97814e+01      -2.83475e+00       2.53147e-04       1.48806e+02
 14.300      2.04852e+02       1.96096e+01      -2.75926e+00       2.48966e-04       1.46373e+02
 14.400      2.05006e+02       1.93682e+01      -2.57392e+00       2.44713e-04       1.43981e+02
 14.500      2.05258e+02       1.90679e+01      -2.29376e+00       2.40417e-04       1.41628e+02
 14.600      2.05589e+02       1.87193e+01      -1.93382e+00       2.36108e-04       1.39313e+02
 14.700      2.05977e+02       1.83331e+01      -1.50914e+00       2.31811e-04       1.37036e+02
 14.800      2.06402e+02       1.79197e+01      -1.03474e+00       2.27552e-04       1.34796e+02
 14.900      2.06843e+02       1.74898e+01      -5.25670e-01       2.23352e-04       1.32591e+02
 15.000      2.07280e+02       1.70540e+01       3.04908e-03       2.19235e-04       1.30421e+02
 15.100      2.07691e+02       1.66229e+01       5.36376e-01       2.15217e-04       1.28285e+02
 15.200      2.08055e+02       1.62071e+01       1.05927e+00       2.11318e-04       1.26182e+02
 15.300      2.08353e+02       1.58171e+01       1.55692e+00       2.07553e-04       1.24111e+02
 15.400      2.08577e+02       1.54572e+01       2.02142e+00       2.03925e-04       1.22073e+02
 15.500      2.08734e+02       1.51247e+01       2.45315e+00       2.00424e-04       1.20067e+02
 15.600      2.08831e+02       1.48164e+01       2.85298e+00       1.97039e-04       1.18094e+02
 15.700      2.08877e+02       1.45293e+01       3.22177e+00       1.93760e-04       1.16155e+02
 15.800      2.08879e+02       1.42602e+01       3.56040e+00       1.90579e-04       1.14249e+02
 15.900      2.08846e+02       1.40058e+01       3.86974e+00       1.87486e-04       1.12377e+02
 16.000      2.08785e+02       1.37632e+01       4.15066e+00       1.84474e-04       1.10539e+02
 16.100      2.08705e+02       1.35290e+01       4.40402e+00       1.81534e-04       1.08736e+02
 16.200      2.08613e+02       1.33002e+01       4.63070e+00       1.78660e-04       1.06967e+02
 16.300      2.08518e+02       1.30736e+01       4.83156e+00       1.75844e-04       1.05233e+02
 16.400      2.08427e+02       1.28461e+01       5.00748e+00       1.73080e-04       1.03534e+02
 16.500      2.08348e+02       1.26144e+01       5.15932e+00       1.70362e-04       1.01869e+02
 16.600      2.08289e+02       1.23756e+01       5.28795e+00       1.67683e-04       1.00239e+02
 16.700      2.08257e+02       1.21267e+01       5.39425e+00       1.65039e-04       9.86435e+01
 16.800      2.08253e+02       1.18677e+01       5.47903e+00       1.62429e-04       9.70815e+01
 16.900      2.08276e+02       1.15993e+01       5.54313e+00       1.59851e-04       9.55513e+01
 17.000      2.08324e+02       1.13223e+01       5.58735e+00       1.57305e-04       9.40516e+01
 17.100      2.08396e+02       1.10376e+01       5.61254e+00       1.54792e-04       9.25808e+01
 17.200      2.08490e+02       1.07460e+01       5.61949e+00       1.52311e-04       9.11379e+01
 17.300      2.08604e+02       1.04483e+01       5.60904e+00       1.49862e-04       8.97215e+01
 17.400      2.08738e+02       1.01452e+01       5.58201e+00       1.47444e-04       8.83303e+01
 17.500      2.08889e+02       9.83764e+00       5.53922e+00       1.45057e-04       8.69633e+01
 17.600      2.09056e+02       9.52639e+00       5.48148e+00       1.42701e-04       8.56194e+01
 17.700      2.09238e+02       9.21226e+00       5.40963e+00       1.40376e-04       8.42975e+01
 17.800      2.09433e+02       8.89607e+00       5.32447e+00       1.38081e-04       8.29966e+01
 17.900      2.09639e+02       8.57862e+00       5.22684e+00       1.35816e-04       8.17157e+01
 18.000      2.09856e+02       8.26072e+00       5.11754e+00       1.33581e-04       8.04540e+01
 18.100      2.10082e+02       7.94318e+00       4.99741e+00       1.31375e-04       7.92106e+01
 18.200      2.10315e+02       7.62682e+00       4.86727e+00       1.29198e-04       7.79847e+01
 18.300      2.10554e+02       7.31245e+00       4.72793e+00       1.27051e-04       7.67754e+01
 18.400      2.10796e+02       7.00087e+00       4.58021e+00       1.24932e-04       7.55820e+01
 18.500      2.11042e+02       6.69289e+00       4.42494e+00       1.22841e-04       7.44038e+01
 18.600      2.11289e+02       6.38933e+00       4.26293e+00       1.20779e-04       7.32402e+01
 18.700      2.11536e+02       6.09100e+00       4.09502e+00       1.18744e-04       7.20904e+01
 18.800      2.11781e+02       5.79871e+00       3.92202e+00       1.16737e-04       7.09539e+01
 18.900      2.12022e+02       5.51327e+00       3.74474e+00       1.14757e-04       6.98300e+01
 19.000      2.12260e+02       5.23525e+00       3.56403e+00       1.12804e-04       6.87186e+01
 19.100      2.12493e+02       4.96467e+00       3.38072e+00       1.10879e-04       6.76199e+01
 19.200      2.12721e+02       4.70142e+00       3.19569e+00       1.08982e-04       6.65345e+01
 19.300      2.12945e+02       4.44541e+00       3.00979e+00       1.07113e-04       6.54627e+01
 19.400      2.13165e+02       4.19655e+00       2.82387e+00       1.05274e-04       6.44050e+01
 19.500      2.13379e+02       3.95475e+00       2.63879e+00       1.03465e-04       6.33617e+01
 19.600      2.13589e+02       3.71990e+00       2.45541e+00       1.01685e-04       6.23331e+01
 19.700      2.13794e+02       3.49193e+00       2.27458e+00       9.99358e-05       6.13196e+01
 19.800      2.13995e+02       3.27073e+00       2.09717e+00       9.82167e-05       6.03213e+01
 19.900      2.14191e+02       3.05620e+00       1.92403e+00       9.65284e-05       5.93386e+01
 20.000      2.14381e+02       2.84827e+00       1.75601e+00       9.48709e-05       5.83716e+01
 20.100      2.14567e+02       2.64683e+00       1.59397e+00       9.32443e-05       5.74206e+01
 20.200      2.14748e+02       2.45179e+00       1.43878e+00       9.16487e-05       5.64857e+01
 20.300      2.14924e+02       2.26306e+00       1.29128e+00       9.00843e-05       5.55670e+01
