# Data Source: NASA MERRA (version 2)
# Model Calculated 2019-07-18 22:53:20
# Model Time = 2011-09-11 18:00:00
# Location = [  39.1026,  -84.5123 ]
# Fields = [ Z(km), T(K), U(m/s), V(m/s), R(g/cm3), P(mbar) ]
# Ground Height = 0.165
  0.000      2.97576e+02       2.36610e+00       8.68802e-01       1.19080e-03       1.01699e+03
  0.100      2.96759e+02       2.58704e+00       1.05760e+00       1.18038e-03       1.00533e+03
  0.200      2.95970e+02       2.81912e+00       1.25006e+00       1.16995e-03       9.93797e+02
  0.300      2.95148e+02       3.03816e+00       1.43823e+00       1.15975e-03       9.82396e+02
  0.400      2.94235e+02       3.22022e+00       1.61394e+00       1.14999e-03       9.71112e+02
  0.500      2.93226e+02       3.35446e+00       1.75724e+00       1.14067e-03       9.59939e+02
  0.600      2.92199e+02       3.44962e+00       1.83053e+00       1.13148e-03       9.48869e+02
  0.700      2.91217e+02       3.52262e+00       1.81531e+00       1.12216e-03       9.37897e+02
  0.800      2.90268e+02       3.60965e+00       1.75366e+00       1.11277e-03       9.27016e+02
  0.900      2.89334e+02       3.74635e+00       1.69452e+00       1.10336e-03       9.16221e+02
  1.000      2.88435e+02       3.93950e+00       1.65667e+00       1.09387e-03       9.05515e+02
  1.100      2.87606e+02       4.18328e+00       1.64555e+00       1.08417e-03       8.94902e+02
  1.200      2.86859e+02       4.46682e+00       1.65834e+00       1.07422e-03       8.84386e+02
  1.300      2.86182e+02       4.77403e+00       1.68356e+00       1.06407e-03       8.73967e+02
  1.400      2.85563e+02       5.08860e+00       1.70930e+00       1.05379e-03       8.63647e+02
  1.500      2.84988e+02       5.39419e+00       1.72369e+00       1.04341e-03       8.53424e+02
  1.600      2.84447e+02       5.67498e+00       1.71612e+00       1.03300e-03       8.43301e+02
  1.700      2.83923e+02       5.92086e+00       1.69134e+00       1.02260e-03       8.33277e+02
  1.800      2.83402e+02       6.12549e+00       1.66407e+00       1.01228e-03       8.23352e+02
  1.900      2.82869e+02       6.28260e+00       1.64920e+00       1.00208e-03       8.13525e+02
  2.000      2.82309e+02       6.38590e+00       1.66163e+00       9.92066e-04       8.03798e+02
  2.100      2.81707e+02       6.42988e+00       1.71495e+00       9.82277e-04       7.94169e+02
  2.200      2.81063e+02       6.42019e+00       1.80384e+00       9.72708e-04       7.84637e+02
  2.300      2.80392e+02       6.37092e+00       1.90871e+00       9.63310e-04       7.75199e+02
  2.400      2.79704e+02       6.29637e+00       2.00960e+00       9.54038e-04       7.65854e+02
  2.500      2.79012e+02       6.21085e+00       2.08653e+00       9.44845e-04       7.56599e+02
  2.600      2.78330e+02       6.12860e+00       2.11968e+00       9.35686e-04       7.47432e+02
  2.700      2.77662e+02       6.05959e+00       2.10009e+00       9.26542e-04       7.38352e+02
  2.800      2.77003e+02       6.00609e+00       2.03824e+00       9.17433e-04       7.29358e+02
  2.900      2.76346e+02       5.96960e+00       1.94664e+00       9.08381e-04       7.20450e+02
  3.000      2.75685e+02       5.95161e+00       1.83777e+00       8.99410e-04       7.11629e+02
  3.100      2.75013e+02       5.95361e+00       1.72414e+00       8.90543e-04       7.02893e+02
  3.200      2.74322e+02       5.97689e+00       1.61739e+00       8.81798e-04       6.94243e+02
  3.300      2.73614e+02       6.02040e+00       1.51939e+00       8.73173e-04       6.85679e+02
  3.400      2.72893e+02       6.08161e+00       1.42568e+00       8.64652e-04       6.77198e+02
  3.500      2.72164e+02       6.15795e+00       1.33170e+00       8.56217e-04       6.68800e+02
  3.600      2.71431e+02       6.24683e+00       1.23290e+00       8.47853e-04       6.60483e+02
  3.700      2.70699e+02       6.34569e+00       1.12471e+00       8.39543e-04       6.52247e+02
  3.800      2.69973e+02       6.45160e+00       1.00365e+00       8.31274e-04       6.44090e+02
  3.900      2.69259e+02       6.55821e+00       8.76448e-01       8.23027e-04       6.36013e+02
  4.000      2.68562e+02       6.65730e+00       7.55440e-01       8.14786e-04       6.28016e+02
  4.100      2.67891e+02       6.74063e+00       6.53023e-01       8.06532e-04       6.20099e+02
  4.200      2.67250e+02       6.79995e+00       5.81596e-01       7.98249e-04       6.12263e+02
  4.300      2.66646e+02       6.82703e+00       5.53555e-01       7.89922e-04       6.04507e+02
  4.400      2.66086e+02       6.81386e+00       5.80956e-01       7.81535e-04       5.96833e+02
  4.500      2.65569e+02       6.76117e+00       6.63568e-01       7.73096e-04       5.89239e+02
  4.600      2.65084e+02       6.68062e+00       7.85784e-01       7.64635e-04       5.81728e+02
  4.700      2.64622e+02       6.58454e+00       9.31019e-01       7.56186e-04       5.74297e+02
  4.800      2.64172e+02       6.48527e+00       1.08269e+00       7.47780e-04       5.66948e+02
  4.900      2.63724e+02       6.39515e+00       1.22422e+00       7.39448e-04       5.59680e+02
  5.000      2.63268e+02       6.32653e+00       1.33903e+00       7.31218e-04       5.52493e+02
  5.100      2.62793e+02       6.29092e+00       1.41162e+00       7.23118e-04       5.45387e+02
  5.200      2.62295e+02       6.28962e+00       1.44006e+00       7.15158e-04       5.38361e+02
  5.300      2.61772e+02       6.31705e+00       1.43153e+00       7.07339e-04       5.31413e+02
  5.400      2.61222e+02       6.36752e+00       1.39338e+00       6.99662e-04       5.24541e+02
  5.500      2.60644e+02       6.43532e+00       1.33296e+00       6.92127e-04       5.17744e+02
  5.600      2.60036e+02       6.51474e+00       1.25762e+00       6.84735e-04       5.11019e+02
  5.700      2.59396e+02       6.60008e+00       1.17471e+00       6.77485e-04       5.04366e+02
  5.800      2.58724e+02       6.68565e+00       1.09154e+00       6.70379e-04       4.97782e+02
  5.900      2.58020e+02       6.76616e+00       1.01241e+00       6.63411e-04       4.91267e+02
  6.000      2.57288e+02       6.83698e+00       9.37082e-01       6.56565e-04       4.84818e+02
  6.100      2.56533e+02       6.89352e+00       8.64922e-01       6.49826e-04       4.78434e+02
  6.200      2.55760e+02       6.93119e+00       7.95295e-01       6.43180e-04       4.72114e+02
  6.300      2.54974e+02       6.94541e+00       7.27567e-01       6.36611e-04       4.65857e+02
  6.400      2.54179e+02       6.93159e+00       6.61104e-01       6.30107e-04       4.59660e+02
  6.500      2.53381e+02       6.88515e+00       5.95271e-01       6.23653e-04       4.53523e+02
  6.600      2.52584e+02       6.80162e+00       5.29461e-01       6.17237e-04       4.47445e+02
  6.700      2.51790e+02       6.68055e+00       4.63968e-01       6.10854e-04       4.41425e+02
  6.800      2.50998e+02       6.52644e+00       4.00191e-01       6.04511e-04       4.35468e+02
  6.900      2.50207e+02       6.34410e+00       3.39598e-01       5.98214e-04       4.29574e+02
  7.000      2.49417e+02       6.13832e+00       2.83657e-01       5.91969e-04       4.23746e+02
  7.100      2.48625e+02       5.91391e+00       2.33836e-01       5.85782e-04       4.17987e+02
  7.200      2.47831e+02       5.67567e+00       1.91602e-01       5.79660e-04       4.12298e+02
  7.300      2.47035e+02       5.42841e+00       1.58424e-01       5.73608e-04       4.06682e+02
  7.400      2.46233e+02       5.17691e+00       1.35768e-01       5.67630e-04       4.01139e+02
  7.500      2.45427e+02       4.92573e+00       1.24624e-01       5.61731e-04       3.95670e+02
  7.600      2.44618e+02       4.67734e+00       1.22355e-01       5.55897e-04       3.90270e+02
  7.700      2.43810e+02       4.43331e+00       1.24671e-01       5.50106e-04       3.84928e+02
  7.800      2.43005e+02       4.19520e+00       1.27270e-01       5.44338e-04       3.79635e+02
  7.900      2.42209e+02       3.96456e+00       1.25852e-01       5.38574e-04       3.74383e+02
  8.000      2.41423e+02       3.74295e+00       1.16115e-01       5.32795e-04       3.69165e+02
  8.100      2.40651e+02       3.53192e+00       9.37598e-02       5.26984e-04       3.63971e+02
  8.200      2.39897e+02       3.33304e+00       5.44852e-02       5.21122e-04       3.58795e+02
  8.300      2.39165e+02       3.14786e+00      -6.01017e-03       5.15195e-04       3.53631e+02
  8.400      2.38457e+02       2.97794e+00      -9.19801e-02       5.09186e-04       3.48472e+02
  8.500      2.37776e+02       2.82499e+00      -2.04042e-01       5.03100e-04       3.43324e+02
  8.600      2.37122e+02       2.69103e+00      -3.36577e-01       4.96978e-04       3.38213e+02
  8.700      2.36494e+02       2.57809e+00      -4.83354e-01       4.90859e-04       3.33164e+02
  8.800      2.35892e+02       2.48819e+00      -6.38146e-01       4.84781e-04       3.28202e+02
  8.900      2.35316e+02       2.42338e+00      -7.94722e-01       4.78782e-04       3.23348e+02
  9.000      2.34765e+02       2.38567e+00      -9.46854e-01       4.72896e-04       3.18626e+02
  9.100      2.34239e+02       2.37711e+00      -1.08831e+00       4.67156e-04       3.14054e+02
  9.200      2.33738e+02       2.39973e+00      -1.21286e+00       4.61595e-04       3.09651e+02
  9.300      2.33261e+02       2.45556e+00      -1.31428e+00       4.56242e-04       3.05435e+02
  9.400      2.32808e+02       2.54662e+00      -1.38634e+00       4.51127e-04       3.01424e+02
  9.500      2.32378e+02       2.67473e+00      -1.42314e+00       4.46272e-04       2.97631e+02
  9.600      2.31971e+02       2.83869e+00      -1.42334e+00       4.41673e-04       2.94047e+02
  9.700      2.31585e+02       3.03516e+00      -1.38876e+00       4.37298e-04       2.90650e+02
  9.800      2.31219e+02       3.26078e+00      -1.32134e+00       4.33120e-04       2.87418e+02
  9.900      2.30871e+02       3.51217e+00      -1.22298e+00       4.29112e-04       2.84329e+02
 10.000      2.30539e+02       3.78595e+00      -1.09560e+00       4.25246e-04       2.81363e+02
 10.100      2.30223e+02       4.07876e+00      -9.41117e-01       4.21498e-04       2.78500e+02
 10.200      2.29920e+02       4.38722e+00      -7.61441e-01       4.17844e-04       2.75723e+02
 10.300      2.29629e+02       4.70795e+00      -5.58485e-01       4.14260e-04       2.73012e+02
 10.400      2.29350e+02       5.03758e+00      -3.34169e-01       4.10723e-04       2.70352e+02
 10.500      2.29080e+02       5.37274e+00      -9.04029e-02       4.07212e-04       2.67725e+02
 10.600      2.28817e+02       5.71006e+00       1.70896e-01       4.03705e-04       2.65115e+02
 10.700      2.28561e+02       6.04615e+00       4.47811e-01       4.00182e-04       2.62507e+02
 10.800      2.28310e+02       6.37766e+00       7.38432e-01       3.96623e-04       2.59887e+02
 10.900      2.28062e+02       6.70119e+00       1.04084e+00       3.93009e-04       2.57240e+02
 11.000      2.27817e+02       7.01339e+00       1.35312e+00       3.89323e-04       2.54553e+02
 11.100      2.27571e+02       7.31088e+00       1.67337e+00       3.85547e-04       2.51812e+02
 11.200      2.27325e+02       7.59030e+00       1.99965e+00       3.81664e-04       2.49006e+02
 11.300      2.27077e+02       7.84983e+00       2.32959e+00       3.77667e-04       2.46130e+02
 11.400      2.26825e+02       8.08984e+00       2.66015e+00       3.73561e-04       2.43184e+02
 11.500      2.26569e+02       8.31092e+00       2.98824e+00       3.69352e-04       2.40172e+02
 11.600      2.26307e+02       8.51363e+00       3.31075e+00       3.65045e-04       2.37098e+02
 11.700      2.26039e+02       8.69853e+00       3.62460e+00       3.60647e-04       2.33963e+02
 11.800      2.25762e+02       8.86619e+00       3.92669e+00       3.56164e-04       2.30772e+02
 11.900      2.25477e+02       9.01718e+00       4.21392e+00       3.51601e-04       2.27528e+02
 12.000      2.25182e+02       9.15207e+00       4.48320e+00       3.46965e-04       2.24234e+02
 12.100      2.24875e+02       9.27142e+00       4.73143e+00       3.42261e-04       2.20892e+02
 12.200      2.24557e+02       9.37581e+00       4.95551e+00       3.37494e-04       2.17507e+02
 12.300      2.24224e+02       9.46580e+00       5.15236e+00       3.32671e-04       2.14082e+02
 12.400      2.23878e+02       9.54196e+00       5.31887e+00       3.27798e-04       2.10620e+02
 12.500      2.23516e+02       9.60485e+00       5.45196e+00       3.22880e-04       2.07124e+02
 12.600      2.23137e+02       9.65505e+00       5.54851e+00       3.17922e-04       2.03598e+02
 12.700      2.22740e+02       9.69312e+00       5.60545e+00       3.12930e-04       2.00045e+02
 12.800      2.22325e+02       9.71968e+00       5.62084e+00       3.07910e-04       1.96469e+02
 12.900      2.21894e+02       9.73555e+00       5.59757e+00       3.02877e-04       1.92882e+02
 13.000      2.21449e+02       9.74160e+00       5.53982e+00       2.97842e-04       1.89296e+02
 13.100      2.20994e+02       9.73871e+00       5.45173e+00       2.92820e-04       1.85722e+02
 13.200      2.20531e+02       9.72774e+00       5.33747e+00       2.87822e-04       1.82169e+02
 13.300      2.20063e+02       9.70957e+00       5.20118e+00       2.82859e-04       1.78648e+02
 13.400      2.19592e+02       9.68508e+00       5.04704e+00       2.77943e-04       1.75168e+02
 13.500      2.19123e+02       9.65514e+00       4.87920e+00       2.73084e-04       1.71737e+02
 13.600      2.18656e+02       9.62061e+00       4.70181e+00       2.68289e-04       1.68363e+02
 13.700      2.18196e+02       9.58237e+00       4.51903e+00       2.63569e-04       1.65053e+02
 13.800      2.17744e+02       9.54130e+00       4.33503e+00       2.58931e-04       1.61813e+02
 13.900      2.17304e+02       9.49827e+00       4.15395e+00       2.54382e-04       1.58648e+02
 14.000      2.16879e+02       9.45414e+00       3.97996e+00       2.49928e-04       1.55566e+02
 14.100      2.16471e+02       9.40981e+00       3.81722e+00       2.45576e-04       1.52569e+02
 14.200      2.16082e+02       9.36612e+00       3.66987e+00       2.41331e-04       1.49663e+02
 14.300      2.15716e+02       9.32368e+00       3.54087e+00       2.37196e-04       1.46850e+02
 14.400      2.15372e+02       9.28225e+00       3.42971e+00       2.33168e-04       1.44125e+02
 14.500      2.15048e+02       9.24148e+00       3.33528e+00       2.29241e-04       1.41485e+02
 14.600      2.14744e+02       9.20098e+00       3.25651e+00       2.25412e-04       1.38925e+02
 14.700      2.14460e+02       9.16041e+00       3.19228e+00       2.21677e-04       1.36442e+02
 14.800      2.14194e+02       9.11937e+00       3.14149e+00       2.18032e-04       1.34032e+02
 14.900      2.13945e+02       9.07753e+00       3.10304e+00       2.14472e-04       1.31691e+02
 15.000      2.13714e+02       9.03450e+00       3.07584e+00       2.10995e-04       1.29416e+02
 15.100      2.13499e+02       8.98991e+00       3.05879e+00       2.07598e-04       1.27204e+02
 15.200      2.13299e+02       8.94341e+00       3.05078e+00       2.04276e-04       1.25052e+02
 15.300      2.13114e+02       8.89462e+00       3.05072e+00       2.01028e-04       1.22956e+02
 15.400      2.12942e+02       8.84318e+00       3.05751e+00       1.97849e-04       1.20914e+02
 15.500      2.12784e+02       8.78872e+00       3.07004e+00       1.94737e-04       1.18924e+02
 15.600      2.12638e+02       8.73088e+00       3.08723e+00       1.91690e-04       1.16983e+02
 15.700      2.12503e+02       8.66928e+00       3.10796e+00       1.88705e-04       1.15088e+02
 15.800      2.12379e+02       8.60356e+00       3.13114e+00       1.85778e-04       1.13237e+02
 15.900      2.12265e+02       8.53335e+00       3.15567e+00       1.82909e-04       1.11428e+02
 16.000      2.12160e+02       8.45829e+00       3.18045e+00       1.80095e-04       1.09660e+02
 16.100      2.12064e+02       8.37801e+00       3.20438e+00       1.77333e-04       1.07929e+02
 16.200      2.11974e+02       8.29215e+00       3.22636e+00       1.74621e-04       1.06234e+02
 16.300      2.11892e+02       8.20033e+00       3.24529e+00       1.71958e-04       1.04573e+02
 16.400      2.11816e+02       8.10218e+00       3.26007e+00       1.69341e-04       1.02945e+02
 16.500      2.11745e+02       7.99735e+00       3.26961e+00       1.66769e-04       1.01347e+02
 16.600      2.11678e+02       7.88547e+00       3.27280e+00       1.64240e-04       9.97786e+01
 16.700      2.11616e+02       7.76641e+00       3.26888e+00       1.61752e-04       9.82381e+01
 16.800      2.11557e+02       7.64070e+00       3.25796e+00       1.59304e-04       9.67242e+01
 16.900      2.11503e+02       7.50896e+00       3.24029e+00       1.56893e-04       9.52362e+01
 17.000      2.11453e+02       7.37183e+00       3.21612e+00       1.54519e-04       9.37729e+01
 17.100      2.11408e+02       7.22994e+00       3.18572e+00       1.52180e-04       9.23336e+01
 17.200      2.11368e+02       7.08391e+00       3.14933e+00       1.49874e-04       9.09174e+01
 17.300      2.11333e+02       6.93438e+00       3.10720e+00       1.47600e-04       8.95235e+01
 17.400      2.11304e+02       6.78197e+00       3.05959e+00       1.45357e-04       8.81510e+01
 17.500      2.11281e+02       6.62730e+00       3.00676e+00       1.43144e-04       8.67992e+01
 17.600      2.11264e+02       6.47102e+00       2.94895e+00       1.40959e-04       8.54674e+01
 17.700      2.11253e+02       6.31375e+00       2.88642e+00       1.38802e-04       8.41549e+01
 17.800      2.11248e+02       6.15611e+00       2.81943e+00       1.36671e-04       8.28610e+01
 17.900      2.11251e+02       5.99874e+00       2.74822e+00       1.34565e-04       8.15851e+01
 18.000      2.11260e+02       5.84227e+00       2.67305e+00       1.32483e-04       8.03266e+01
 18.100      2.11277e+02       5.68732e+00       2.59417e+00       1.30425e-04       7.90848e+01
 18.200      2.11301e+02       5.53452e+00       2.51184e+00       1.28389e-04       7.78593e+01
 18.300      2.11333e+02       5.38451e+00       2.42631e+00       1.26375e-04       7.66494e+01
 18.400      2.11373e+02       5.23791e+00       2.33783e+00       1.24381e-04       7.54547e+01
 18.500      2.11421e+02       5.09534e+00       2.24665e+00       1.22408e-04       7.42747e+01
 18.600      2.11478e+02       4.95745e+00       2.15304e+00       1.20455e-04       7.31089e+01
 18.700      2.11543e+02       4.82485e+00       2.05724e+00       1.18520e-04       7.19569e+01
 18.800      2.11617e+02       4.69818e+00       1.95950e+00       1.16604e-04       7.08183e+01
 18.900      2.11701e+02       4.57806e+00       1.86009e+00       1.14705e-04       6.96926e+01
 19.000      2.11794e+02       4.46479e+00       1.75927e+00       1.12824e-04       6.85798e+01
 19.100      2.11895e+02       4.35806e+00       1.65735e+00       1.10962e-04       6.74801e+01
 19.200      2.12005e+02       4.25751e+00       1.55465e+00       1.09119e-04       6.63941e+01
 19.300      2.12123e+02       4.16276e+00       1.45149e+00       1.07298e-04       6.53222e+01
 19.400      2.12248e+02       4.07345e+00       1.34817e+00       1.05499e-04       6.42645e+01
 19.500      2.12379e+02       3.98922e+00       1.24501e+00       1.03722e-04       6.32215e+01
 19.600      2.12516e+02       3.90968e+00       1.14233e+00       1.01970e-04       6.21935e+01
 19.700      2.12659e+02       3.83448e+00       1.04044e+00       1.00241e-04       6.11806e+01
 19.800      2.12807e+02       3.76325e+00       9.39655e-01       9.85385e-05       6.01831e+01
 19.900      2.12960e+02       3.69561e+00       8.40289e-01       9.68614e-05       5.92012e+01
 20.000      2.13117e+02       3.63120e+00       7.42656e-01       9.52106e-05       5.82351e+01
 20.100      2.13277e+02       3.56966e+00       6.47071e-01       9.35868e-05       5.72849e+01
 20.200      2.13440e+02       3.51061e+00       5.53849e-01       9.19903e-05       5.63508e+01
