# Data Source: NASA MERRA (version 2)
# Model Time = 2011-11-12 18:00:00
# Location = [  39.1026,  -84.5123 ]
# Fields = [ Z(km), T(K), U(m/s), V(m/s), R(g/cm3), P(mbar) ]
# Ground Height = 0.165
  0.000      2.89633e+02       3.25475e+00       5.14198e+00       1.22305e-03       1.01665e+03
  0.100      2.88886e+02       3.70236e+00       5.64814e+00       1.21179e-03       1.00469e+03
  0.200      2.88163e+02       4.15868e+00       6.12438e+00       1.20055e-03       9.92884e+02
  0.300      2.87403e+02       4.60172e+00       6.64625e+00       1.18956e-03       9.81201e+02
  0.400      2.86549e+02       5.00789e+00       7.28421e+00       1.17903e-03       9.69626e+02
  0.500      2.85588e+02       5.31089e+00       7.97062e+00       1.16899e-03       9.58147e+02
  0.600      2.84563e+02       5.39945e+00       8.48853e+00       1.15927e-03       9.46768e+02
  0.700      2.83528e+02       5.31817e+00       8.77361e+00       1.14964e-03       9.35488e+02
  0.800      2.82555e+02       5.39110e+00       9.04460e+00       1.13980e-03       9.24302e+02
  0.900      2.81713e+02       5.87638e+00       9.47747e+00       1.12949e-03       9.13207e+02
  1.000      2.81050e+02       6.71883e+00       1.00104e+01       1.11852e-03       9.02219e+02
  1.100      2.80606e+02       7.80109e+00       1.05395e+01       1.10680e-03       8.91352e+02
  1.200      2.80347e+02       9.02582e+00       1.10135e+01       1.09447e-03       8.80609e+02
  1.300      2.80206e+02       1.03048e+01       1.14053e+01       1.08181e-03       8.69986e+02
  1.400      2.80119e+02       1.15496e+01       1.16877e+01       1.06908e-03       8.59480e+02
  1.500      2.80020e+02       1.26723e+01       1.18335e+01       1.05653e-03       8.49087e+02
  1.600      2.79861e+02       1.36102e+01       1.18253e+01       1.04433e-03       8.38805e+02
  1.700      2.79652e+02       1.43801e+01       1.16746e+01       1.03243e-03       8.28634e+02
  1.800      2.79415e+02       1.50138e+01       1.13989e+01       1.02077e-03       8.18578e+02
  1.900      2.79168e+02       1.55431e+01       1.10155e+01       1.00927e-03       8.08637e+02
  2.000      2.78933e+02       1.59999e+01       1.05416e+01       9.97845e-04       7.98812e+02
  2.100      2.78718e+02       1.64067e+01       9.99496e+00       9.86478e-04       7.89105e+02
  2.200      2.78499e+02       1.67599e+01       9.39377e+00       9.75249e-04       7.79510e+02
  2.300      2.78245e+02       1.70513e+01       8.75644e+00       9.64259e-04       7.70023e+02
  2.400      2.77926e+02       1.72729e+01       8.10139e+00       9.53604e-04       7.60641e+02
  2.500      2.77512e+02       1.74165e+01       7.44701e+00       9.43375e-04       7.51358e+02
  2.600      2.76976e+02       1.74781e+01       6.81056e+00       9.33642e-04       7.42172e+02
  2.700      2.76334e+02       1.74785e+01       6.20208e+00       9.24349e-04       7.33080e+02
  2.800      2.75610e+02       1.74484e+01       5.62882e+00       9.15393e-04       7.24078e+02
  2.900      2.74834e+02       1.74186e+01       5.09803e+00       9.06678e-04       7.15164e+02
  3.000      2.74032e+02       1.74197e+01       4.61694e+00       8.98107e-04       7.06336e+02
  3.100      2.73231e+02       1.74822e+01       4.19275e+00       8.89589e-04       6.97592e+02
  3.200      2.72450e+02       1.76185e+01       3.82582e+00       8.81062e-04       6.88930e+02
  3.300      2.71692e+02       1.78086e+01       3.50424e+00       8.72517e-04       6.80350e+02
  3.400      2.70959e+02       1.80289e+01       3.21478e+00       8.63952e-04       6.71854e+02
  3.500      2.70252e+02       1.82560e+01       2.94425e+00       8.55365e-04       6.63442e+02
  3.600      2.69574e+02       1.84663e+01       2.67942e+00       8.46754e-04       6.55114e+02
  3.700      2.68926e+02       1.86366e+01       2.40722e+00       8.38116e-04       6.46871e+02
  3.800      2.68305e+02       1.87554e+01       2.12043e+00       8.29460e-04       6.38713e+02
  3.900      2.67705e+02       1.88272e+01       1.81980e+00       8.20810e-04       6.30640e+02
  4.000      2.67119e+02       1.88578e+01       1.50667e+00       8.12190e-04       6.22651e+02
  4.100      2.66540e+02       1.88528e+01       1.18240e+00       8.03621e-04       6.14746e+02
  4.200      2.65961e+02       1.88179e+01       8.48311e-01       7.95127e-04       6.06926e+02
  4.300      2.65373e+02       1.87587e+01       5.05752e-01       7.86727e-04       5.99189e+02
  4.400      2.64772e+02       1.86809e+01       1.57016e-01       7.78442e-04       5.91535e+02
  4.500      2.64153e+02       1.85890e+01      -1.92834e-01       7.70278e-04       5.83962e+02
  4.600      2.63512e+02       1.84878e+01      -5.38227e-01       7.62242e-04       5.76468e+02
  4.700      2.62846e+02       1.83818e+01      -8.73593e-01       7.54341e-04       5.69052e+02
  4.800      2.62152e+02       1.82756e+01      -1.19336e+00       7.46582e-04       5.61711e+02
  4.900      2.61426e+02       1.81740e+01      -1.49196e+00       7.38970e-04       5.54443e+02
  5.000      2.60664e+02       1.80814e+01      -1.76386e+00       7.31511e-04       5.47248e+02
  5.100      2.59869e+02       1.80012e+01      -2.00526e+00       7.24197e-04       5.40124e+02
  5.200      2.59052e+02       1.79350e+01      -2.21467e+00       7.16996e-04       5.33071e+02
  5.300      2.58222e+02       1.78843e+01      -2.39078e+00       7.09880e-04       5.26090e+02
  5.400      2.57391e+02       1.78506e+01      -2.53229e+00       7.02819e-04       5.19180e+02
  5.500      2.56569e+02       1.78354e+01      -2.63789e+00       6.95784e-04       5.12342e+02
  5.600      2.55766e+02       1.78402e+01      -2.70627e+00       6.88748e-04       5.05575e+02
  5.700      2.54995e+02       1.78664e+01      -2.73612e+00       6.81683e-04       4.98880e+02
  5.800      2.54260e+02       1.79144e+01      -2.73044e+00       6.74577e-04       4.92257e+02
  5.900      2.53556e+02       1.79820e+01      -2.70269e+00       6.67445e-04       4.85703e+02
  6.000      2.52875e+02       1.80665e+01      -2.66787e+00       6.60306e-04       4.79218e+02
  6.100      2.52210e+02       1.81652e+01      -2.64101e+00       6.53182e-04       4.72801e+02
  6.200      2.51553e+02       1.82753e+01      -2.63712e+00       6.46090e-04       4.66449e+02
  6.300      2.50897e+02       1.83943e+01      -2.67123e+00       6.39048e-04       4.60162e+02
  6.400      2.50234e+02       1.85195e+01      -2.75836e+00       6.32076e-04       4.53939e+02
  6.500      2.49557e+02       1.86481e+01      -2.91327e+00       6.25189e-04       4.47779e+02
  6.600      2.48862e+02       1.87805e+01      -3.13862e+00       6.18397e-04       4.41681e+02
  6.700      2.48150e+02       1.89213e+01      -3.41960e+00       6.11702e-04       4.35648e+02
  6.800      2.47421e+02       1.90752e+01      -3.74007e+00       6.05102e-04       4.29682e+02
  6.900      2.46678e+02       1.92472e+01      -4.08390e+00       5.98597e-04       4.23786e+02
  7.000      2.45921e+02       1.94419e+01      -4.43494e+00       5.92185e-04       4.17961e+02
  7.100      2.45153e+02       1.96644e+01      -4.77706e+00       5.85868e-04       4.12210e+02
  7.200      2.44374e+02       1.99193e+01      -5.09409e+00       5.79643e-04       4.06534e+02
  7.300      2.43585e+02       2.02116e+01      -5.36992e+00       5.73510e-04       4.00934e+02
  7.400      2.42788e+02       2.05448e+01      -5.59042e+00       5.67467e-04       3.95411e+02
  7.500      2.41985e+02       2.09143e+01      -5.75513e+00       5.61497e-04       3.89958e+02
  7.600      2.41179e+02       2.13119e+01      -5.86916e+00       5.55581e-04       3.84565e+02
  7.700      2.40373e+02       2.17296e+01      -5.93763e+00       5.49698e-04       3.79221e+02
  7.800      2.39569e+02       2.21594e+01      -5.96566e+00       5.43829e-04       3.73917e+02
  7.900      2.38770e+02       2.25930e+01      -5.95838e+00       5.37956e-04       3.68646e+02
  8.000      2.37979e+02       2.30225e+01      -5.92091e+00       5.32063e-04       3.63398e+02
  8.100      2.37197e+02       2.34397e+01      -5.85839e+00       5.26131e-04       3.58167e+02
  8.200      2.36429e+02       2.38366e+01      -5.77592e+00       5.20145e-04       3.52945e+02
  8.300      2.35676e+02       2.42052e+01      -5.67866e+00       5.14091e-04       3.47726e+02
  8.400      2.34939e+02       2.45433e+01      -5.57222e+00       5.07982e-04       3.42519e+02
  8.500      2.34216e+02       2.48552e+01      -5.46280e+00       5.01862e-04       3.37352e+02
  8.600      2.33506e+02       2.51457e+01      -5.35662e+00       4.95777e-04       3.32251e+02
  8.700      2.32806e+02       2.54196e+01      -5.25990e+00       4.89769e-04       3.27241e+02
  8.800      2.32116e+02       2.56816e+01      -5.17886e+00       4.83878e-04       3.22346e+02
  8.900      2.31432e+02       2.59365e+01      -5.11975e+00       4.78142e-04       3.17587e+02
  9.000      2.30754e+02       2.61890e+01      -5.08876e+00       4.72599e-04       3.12985e+02
  9.100      2.30079e+02       2.64440e+01      -5.09214e+00       4.67283e-04       3.08559e+02
  9.200      2.29405e+02       2.67061e+01      -5.13611e+00       4.62228e-04       3.04328e+02
  9.300      2.28731e+02       2.69802e+01      -5.22688e+00       4.57466e-04       3.00308e+02
  9.400      2.28056e+02       2.72702e+01      -5.36921e+00       4.53020e-04       2.96510e+02
  9.500      2.27378e+02       2.75764e+01      -5.56038e+00       4.48864e-04       2.92918e+02
  9.600      2.26700e+02       2.78975e+01      -5.79530e+00       4.44963e-04       2.89505e+02
  9.700      2.26021e+02       2.82327e+01      -6.06888e+00       4.41280e-04       2.86249e+02
  9.800      2.25341e+02       2.85809e+01      -6.37603e+00       4.37781e-04       2.83126e+02
  9.900      2.24663e+02       2.89409e+01      -6.71166e+00       4.34434e-04       2.80115e+02
 10.000      2.23985e+02       2.93118e+01      -7.07069e+00       4.31207e-04       2.77196e+02
 10.100      2.23309e+02       2.96925e+01      -7.44802e+00       4.28068e-04       2.74347e+02
 10.200      2.22635e+02       3.00819e+01      -7.83856e+00       4.24987e-04       2.71551e+02
 10.300      2.21965e+02       3.04791e+01      -8.23722e+00       4.21935e-04       2.68789e+02
 10.400      2.21297e+02       3.08828e+01      -8.63893e+00       4.18884e-04       2.66042e+02
 10.500      2.20633e+02       3.12922e+01      -9.03858e+00       4.15805e-04       2.63295e+02
 10.600      2.19974e+02       3.17061e+01      -9.43110e+00       4.12673e-04       2.60531e+02
 10.700      2.19320e+02       3.21235e+01      -9.81138e+00       4.09461e-04       2.57735e+02
 10.800      2.18672e+02       3.25433e+01      -1.01743e+01       4.06144e-04       2.54891e+02
 10.900      2.18030e+02       3.29645e+01      -1.05149e+01       4.02697e-04       2.51986e+02
 11.000      2.17395e+02       3.33860e+01      -1.08280e+01       3.99099e-04       2.49007e+02
 11.100      2.16767e+02       3.38051e+01      -1.11104e+01       3.95334e-04       2.45946e+02
 11.200      2.16150e+02       3.42165e+01      -1.13620e+01       3.91403e-04       2.42808e+02
 11.300      2.15546e+02       3.46148e+01      -1.15826e+01       3.87306e-04       2.39594e+02
 11.400      2.14956e+02       3.49945e+01      -1.17724e+01       3.83045e-04       2.36310e+02
 11.500      2.14384e+02       3.53501e+01      -1.19313e+01       3.78621e-04       2.32958e+02
 11.600      2.13831e+02       3.56762e+01      -1.20594e+01       3.74035e-04       2.29544e+02
 11.700      2.13300e+02       3.59673e+01      -1.21565e+01       3.69291e-04       2.26069e+02
 11.800      2.12793e+02       3.62179e+01      -1.22229e+01       3.64391e-04       2.22540e+02
 11.900      2.12313e+02       3.64225e+01      -1.22583e+01       3.59338e-04       2.18958e+02
 12.000      2.11861e+02       3.65757e+01      -1.22630e+01       3.54136e-04       2.15329e+02
 12.100      2.11441e+02       3.66719e+01      -1.22368e+01       3.48788e-04       2.11657e+02
 12.200      2.11054e+02       3.67058e+01      -1.21798e+01       3.43299e-04       2.07945e+02
 12.300      2.10703e+02       3.66719e+01      -1.20920e+01       3.37675e-04       2.04198e+02
 12.400      2.10390e+02       3.65646e+01      -1.19733e+01       3.31919e-04       2.00419e+02
 12.500      2.10116e+02       3.63801e+01      -1.18242e+01       3.26041e-04       1.96614e+02
 12.600      2.09882e+02       3.61233e+01      -1.16465e+01       3.20067e-04       1.92796e+02
 12.700      2.09683e+02       3.58021e+01      -1.14426e+01       3.14029e-04       1.88980e+02
 12.800      2.09518e+02       3.54247e+01      -1.12152e+01       3.07957e-04       1.85180e+02
 12.900      2.09384e+02       3.49988e+01      -1.09666e+01       3.01879e-04       1.81409e+02
 13.000      2.09280e+02       3.45326e+01      -1.06994e+01       2.95820e-04       1.77679e+02
 13.100      2.09201e+02       3.40340e+01      -1.04160e+01       2.89805e-04       1.74001e+02
 13.200      2.09147e+02       3.35110e+01      -1.01190e+01       2.83858e-04       1.70386e+02
 13.300      2.09115e+02       3.29716e+01      -9.81075e+00       2.77998e-04       1.66843e+02
 13.400      2.09102e+02       3.24237e+01      -9.49383e+00       2.72244e-04       1.63380e+02
 13.500      2.09106e+02       3.18753e+01      -9.17071e+00       2.66616e-04       1.60005e+02
 13.600      2.09125e+02       3.13344e+01      -8.84386e+00       2.61127e-04       1.56725e+02
 13.700      2.09156e+02       3.08090e+01      -8.51579e+00       2.55793e-04       1.53547e+02
 13.800      2.09196e+02       3.03071e+01      -8.18896e+00       2.50627e-04       1.50475e+02
 13.900      2.09244e+02       2.98357e+01      -7.86564e+00       2.45639e-04       1.47514e+02
 14.000      2.09299e+02       2.93955e+01      -7.54653e+00       2.40824e-04       1.44660e+02
 14.100      2.09359e+02       2.89847e+01      -7.23174e+00       2.36174e-04       1.41908e+02
 14.200      2.09426e+02       2.86016e+01      -6.92136e+00       2.31680e-04       1.39251e+02
 14.300      2.09497e+02       2.82442e+01      -6.61550e+00       2.27333e-04       1.36685e+02
 14.400      2.09572e+02       2.79110e+01      -6.31426e+00       2.23128e-04       1.34205e+02
 14.500      2.09651e+02       2.76000e+01      -6.01773e+00       2.19055e-04       1.31805e+02
 14.600      2.09734e+02       2.73095e+01      -5.72602e+00       2.15108e-04       1.29481e+02
 14.700      2.09820e+02       2.70377e+01      -5.43923e+00       2.11281e-04       1.27230e+02
 14.800      2.09908e+02       2.67829e+01      -5.15745e+00       2.07567e-04       1.25046e+02
 14.900      2.09997e+02       2.65431e+01      -4.88079e+00       2.03961e-04       1.22926e+02
 15.000      2.10088e+02       2.63167e+01      -4.60935e+00       2.00456e-04       1.20866e+02
 15.100      2.10180e+02       2.61018e+01      -4.34322e+00       1.97048e-04       1.18863e+02
 15.200      2.10272e+02       2.58968e+01      -4.08251e+00       1.93731e-04       1.16913e+02
 15.300      2.10364e+02       2.56997e+01      -3.82732e+00       1.90501e-04       1.15014e+02
 15.400      2.10454e+02       2.55087e+01      -3.57775e+00       1.87353e-04       1.13162e+02
 15.500      2.10543e+02       2.53222e+01      -3.33389e+00       1.84283e-04       1.11355e+02
 15.600      2.10631e+02       2.51384e+01      -3.09584e+00       1.81286e-04       1.09589e+02
 15.700      2.10716e+02       2.49553e+01      -2.86372e+00       1.78358e-04       1.07863e+02
 15.800      2.10798e+02       2.47713e+01      -2.63762e+00       1.75496e-04       1.06173e+02
 15.900      2.10876e+02       2.45846e+01      -2.41763e+00       1.72696e-04       1.04518e+02
 16.000      2.10951e+02       2.43933e+01      -2.20386e+00       1.69954e-04       1.02895e+02
 16.100      2.11020e+02       2.41957e+01      -1.99640e+00       1.67268e-04       1.01302e+02
 16.200      2.11085e+02       2.39900e+01      -1.79536e+00       1.64634e-04       9.97377e+01
 16.300      2.11144e+02       2.37752e+01      -1.60082e+00       1.62050e-04       9.81996e+01
 16.400      2.11199e+02       2.35518e+01      -1.41273e+00       1.59512e-04       9.66870e+01
 16.500      2.11249e+02       2.33210e+01      -1.23110e+00       1.57020e-04       9.51991e+01
 16.600      2.11296e+02       2.30835e+01      -1.05588e+00       1.54572e-04       9.37351e+01
 16.700      2.11339e+02       2.28403e+01      -8.87065e-01       1.52164e-04       9.22942e+01
 16.800      2.11380e+02       2.25924e+01      -7.24620e-01       1.49797e-04       9.08758e+01
 16.900      2.11418e+02       2.23408e+01      -5.68516e-01       1.47468e-04       8.94791e+01
 17.000      2.11455e+02       2.20863e+01      -4.18732e-01       1.45175e-04       8.81033e+01
 17.100      2.11491e+02       2.18298e+01      -2.75242e-01       1.42917e-04       8.67480e+01
 17.200      2.11527e+02       2.15725e+01      -1.38022e-01       1.40693e-04       8.54124e+01
 17.300      2.11563e+02       2.13150e+01      -7.04899e-03       1.38501e-04       8.40960e+01
 17.400      2.11600e+02       2.10585e+01       1.17708e-01       1.36340e-04       8.27981e+01
 17.500      2.11638e+02       2.08039e+01       2.36272e-01       1.34208e-04       8.15182e+01
 17.600      2.11678e+02       2.05520e+01       3.48667e-01       1.32105e-04       8.02558e+01
 17.700      2.11721e+02       2.03039e+01       4.54919e-01       1.30029e-04       7.90104e+01
 17.800      2.11766e+02       2.00605e+01       5.55052e-01       1.27979e-04       7.77815e+01
 17.900      2.11815e+02       1.98226e+01       6.49094e-01       1.25954e-04       7.65685e+01
 18.000      2.11868e+02       1.95914e+01       7.37068e-01       1.23953e-04       7.53711e+01
 18.100      2.11926e+02       1.93676e+01       8.19001e-01       1.21975e-04       7.41888e+01
 18.200      2.11990e+02       1.91522e+01       8.94916e-01       1.20020e-04       7.30213e+01
 18.300      2.12059e+02       1.89462e+01       9.64839e-01       1.18086e-04       7.18680e+01
 18.400      2.12134e+02       1.87506e+01       1.02880e+00       1.16173e-04       7.07287e+01
 18.500      2.12217e+02       1.85661e+01       1.08682e+00       1.14279e-04       6.96030e+01
 18.600      2.12306e+02       1.83936e+01       1.13932e+00       1.12406e-04       6.84908e+01
 18.700      2.12402e+02       1.82330e+01       1.18724e+00       1.10553e-04       6.73925e+01
 18.800      2.12504e+02       1.80846e+01       1.23159e+00       1.08722e-04       6.63083e+01
 18.900      2.12612e+02       1.79484e+01       1.27336e+00       1.06914e-04       6.52386e+01
 19.000      2.12724e+02       1.78246e+01       1.31356e+00       1.05130e-04       6.41836e+01
 19.100      2.12840e+02       1.77132e+01       1.35317e+00       1.03370e-04       6.31436e+01
 19.200      2.12960e+02       1.76144e+01       1.39321e+00       1.01635e-04       6.21188e+01
 19.300      2.13082e+02       1.75284e+01       1.43466e+00       9.99260e-05       6.11093e+01
 19.400      2.13207e+02       1.74551e+01       1.47853e+00       9.82431e-05       6.01154e+01
 19.500      2.13334e+02       1.73947e+01       1.52581e+00       9.65872e-05       5.91373e+01
 19.600      2.13462e+02       1.73473e+01       1.57751e+00       9.49585e-05       5.81750e+01
 19.700      2.13590e+02       1.73131e+01       1.63462e+00       9.33575e-05       5.72286e+01
 19.800      2.13719e+02       1.72922e+01       1.69813e+00       9.17847e-05       5.62983e+01
 19.900      2.13847e+02       1.72846e+01       1.76906e+00       9.02402e-05       5.53840e+01
 20.000      2.13973e+02       1.72905e+01       1.84839e+00       8.87243e-05       5.44859e+01
 20.100      2.14098e+02       1.73100e+01       1.93713e+00       8.72374e-05       5.36040e+01
 20.200      2.14220e+02       1.73431e+01       2.03628e+00       8.57795e-05       5.27383e+01
 20.300      2.14340e+02       1.73902e+01       2.14682e+00       8.43509e-05       5.18888e+01
