# Data Source: NASA GEOS5 Near-Real-Time
# Model Time = 2010-06-16 18:00:00
# Location = [  39.7393, -104.9900 ]
# Fields = [ Z(km), T(K), U(m/s), V(m/s), R(g/cm3), P(mbar) ]
# Ground Height = 1.589
  0.000      3.10683e+02       1.15277e+00       1.78597e+00       1.12942e-03       1.00706e+03
  0.100      3.10051e+02       1.12558e+00       1.77216e+00       1.11853e-03       9.95322e+02
  0.200      3.09411e+02       1.09858e+00       1.76382e+00       1.10778e-03       9.83720e+02
  0.300      3.08747e+02       1.07222e+00       1.77445e+00       1.09722e-03       9.72257e+02
  0.400      3.08057e+02       1.04808e+00       1.79575e+00       1.08688e-03       9.60933e+02
  0.500      3.07365e+02       1.03001e+00       1.77602e+00       1.07665e-03       9.49754e+02
  0.600      3.06695e+02       1.01986e+00       1.68609e+00       1.06647e-03       9.38722e+02
  0.700      3.06039e+02       1.01084e+00       1.60063e+00       1.05636e-03       9.27836e+02
  0.800      3.05386e+02       9.94552e-01       1.60598e+00       1.04636e-03       9.17092e+02
  0.900      3.04731e+02       9.65956e-01       1.67418e+00       1.03648e-03       9.06485e+02
  1.000      3.04077e+02       9.21885e-01       1.71733e+00       1.02671e-03       8.96011e+02
  1.100      3.03431e+02       8.63149e-01       1.69000e+00       1.01702e-03       8.85667e+02
  1.200      3.02809e+02       7.95943e-01       1.60539e+00       1.00736e-03       8.75456e+02
  1.300      3.02219e+02       7.27223e-01       1.48908e+00       9.97704e-04       8.65378e+02
  1.400      3.01628e+02       6.65653e-01       1.40408e+00       9.88171e-04       8.55433e+02
  1.500      3.00991e+02       6.20228e-01       1.42273e+00       9.78900e-04       8.45618e+02
  1.600      3.00286e+02       5.95150e-01       1.57573e+00       9.69955e-04       8.35929e+02
  1.700      2.99514e+02       5.89132e-01       1.84604e+00       9.61318e-04       8.26355e+02
  1.800      2.98682e+02       6.02149e-01       2.21009e+00       9.52953e-04       8.16888e+02
  1.900      2.97826e+02       6.43816e-01       2.62003e+00       9.44735e-04       8.07523e+02
  2.000      2.96993e+02       7.27368e-01       3.01883e+00       9.36512e-04       7.98254e+02
  2.100      2.96205e+02       8.54408e-01       3.36908e+00       9.28208e-04       7.89078e+02
  2.200      2.95434e+02       9.99757e-01       3.67854e+00       9.19914e-04       7.79991e+02
  2.300      2.94643e+02       1.13522e+00       3.96113e+00       9.11740e-04       7.70990e+02
  2.400      2.93817e+02       1.25466e+00       4.22542e+00       9.03728e-04       7.62074e+02
  2.500      2.92970e+02       1.37730e+00       4.47381e+00       8.95840e-04       7.53244e+02
  2.600      2.92115e+02       1.52284e+00       4.70920e+00       8.88037e-04       7.44502e+02
  2.700      2.91249e+02       1.69889e+00       4.94509e+00       8.80318e-04       7.35846e+02
  2.800      2.90365e+02       1.90446e+00       5.20261e+00       8.72710e-04       7.27270e+02
  2.900      2.89451e+02       2.13787e+00       5.50039e+00       8.65234e-04       7.18771e+02
  3.000      2.88510e+02       2.39307e+00       5.83311e+00       8.57883e-04       7.10347e+02
  3.100      2.87548e+02       2.66159e+00       6.18256e+00       8.50633e-04       7.01997e+02
  3.200      2.86574e+02       2.93506e+00       6.53061e+00       8.43462e-04       6.93720e+02
  3.300      2.85595e+02       3.20568e+00       6.86100e+00       8.36344e-04       6.85516e+02
  3.400      2.84618e+02       3.46600e+00       7.15845e+00       8.29256e-04       6.77382e+02
  3.500      2.83651e+02       3.70999e+00       7.40908e+00       8.22178e-04       6.69316e+02
  3.600      2.82689e+02       3.94627e+00       7.61353e+00       8.15117e-04       6.61319e+02
  3.700      2.81725e+02       4.19192e+00       7.78084e+00       8.08099e-04       6.53389e+02
  3.800      2.80750e+02       4.46387e+00       7.91969e+00       8.01149e-04       6.45527e+02
  3.900      2.79768e+02       4.77418e+00       8.03096e+00       7.94255e-04       6.37734e+02
  4.000      2.78792e+02       5.13084e+00       8.10906e+00       7.87381e-04       6.30008e+02
  4.100      2.77835e+02       5.54157e+00       8.14823e+00       7.80488e-04       6.22351e+02
  4.200      2.76905e+02       6.00575e+00       8.14663e+00       7.73559e-04       6.14761e+02
  4.300      2.75999e+02       6.51023e+00       8.10820e+00       7.66603e-04       6.07240e+02
  4.400      2.75113e+02       7.04087e+00       8.03737e+00       7.59632e-04       5.99785e+02
  4.500      2.74241e+02       7.58325e+00       7.93717e+00       7.52657e-04       5.92396e+02
  4.600      2.73379e+02       8.12205e+00       7.80542e+00       7.45701e-04       5.85075e+02
  4.700      2.72517e+02       8.64174e+00       7.63880e+00       7.38784e-04       5.77821e+02
  4.800      2.71651e+02       9.12705e+00       7.43474e+00       7.31925e-04       5.70636e+02
  4.900      2.70776e+02       9.56689e+00       7.20175e+00       7.25130e-04       5.63519e+02
  5.000      2.69897e+02       9.95326e+00       6.95669e+00       7.18392e-04       5.56469e+02
  5.100      2.69014e+02       1.02783e+01       6.71662e+00       7.11704e-04       5.49485e+02
  5.200      2.68130e+02       1.05345e+01       6.49792e+00       7.05059e-04       5.42567e+02
  5.300      2.67249e+02       1.07160e+01       6.31472e+00       6.98449e-04       5.35713e+02
  5.400      2.66371e+02       1.08173e+01       6.18071e+00       6.91868e-04       5.28923e+02
  5.500      2.65501e+02       1.08331e+01       6.10944e+00       6.85307e-04       5.22195e+02
  5.600      2.64641e+02       1.07729e+01       6.11010e+00       6.78759e-04       5.15532e+02
  5.700      2.63795e+02       1.06645e+01       6.18648e+00       6.72218e-04       5.08931e+02
  5.800      2.62967e+02       1.05367e+01       6.34200e+00       6.65676e-04       5.02396e+02
  5.900      2.62159e+02       1.04176e+01       6.58034e+00       6.59126e-04       4.95925e+02
  6.000      2.61376e+02       1.03297e+01       6.90830e+00       6.52563e-04       4.89519e+02
  6.100      2.60617e+02       1.02907e+01       7.33489e+00       6.45983e-04       4.83177e+02
  6.200      2.59886e+02       1.03184e+01       7.86918e+00       6.39381e-04       4.76898e+02
  6.300      2.59185e+02       1.04294e+01       8.51852e+00       6.32756e-04       4.70682e+02
  6.400      2.58514e+02       1.06288e+01       9.27240e+00       6.26104e-04       4.64529e+02
  6.500      2.57877e+02       1.09146e+01       1.01096e+01       6.19425e-04       4.58440e+02
  6.600      2.57274e+02       1.12847e+01       1.10089e+01       6.12721e-04       4.52418e+02
  6.700      2.56707e+02       1.17354e+01       1.19480e+01       6.05992e-04       4.46463e+02
  6.800      2.56170e+02       1.22373e+01       1.28926e+01       5.99253e-04       4.40575e+02
  6.900      2.55653e+02       1.27413e+01       1.37989e+01       5.92531e-04       4.34753e+02
  7.000      2.55143e+02       1.31978e+01       1.46225e+01       5.85851e-04       4.28996e+02
  7.100      2.54632e+02       1.35576e+01       1.53196e+01       5.79238e-04       4.23303e+02
  7.200      2.54108e+02       1.38039e+01       1.58666e+01       5.72710e-04       4.17672e+02
  7.300      2.53568e+02       1.39760e+01       1.62744e+01       5.66278e-04       4.12103e+02
  7.400      2.53008e+02       1.41182e+01       1.65572e+01       5.59950e-04       4.06597e+02
  7.500      2.52422e+02       1.42750e+01       1.67294e+01       5.53734e-04       4.01153e+02
  7.600      2.51807e+02       1.44861e+01       1.68060e+01       5.47638e-04       3.95771e+02
  7.700      2.51158e+02       1.47553e+01       1.68100e+01       5.41670e-04       3.90449e+02
  7.800      2.50470e+02       1.50697e+01       1.67675e+01       5.35836e-04       3.85184e+02
  7.900      2.49737e+02       1.54162e+01       1.67049e+01       5.30142e-04       3.79976e+02
  8.000      2.48954e+02       1.57819e+01       1.66485e+01       5.24594e-04       3.74821e+02
  8.100      2.48120e+02       1.61551e+01       1.66178e+01       5.19193e-04       3.69719e+02
  8.200      2.47245e+02       1.65297e+01       1.66075e+01       5.13913e-04       3.64669e+02
  8.300      2.46341e+02       1.69007e+01       1.66068e+01       5.08727e-04       3.59670e+02
  8.400      2.45422e+02       1.72629e+01       1.66050e+01       5.03607e-04       3.54722e+02
  8.500      2.44501e+02       1.76116e+01       1.65912e+01       4.98526e-04       3.49824e+02
  8.600      2.43587e+02       1.79431e+01       1.65579e+01       4.93462e-04       3.44977e+02
  8.700      2.42680e+02       1.82598e+01       1.65089e+01       4.88417e-04       3.40179e+02
  8.800      2.41779e+02       1.85651e+01       1.64507e+01       4.83395e-04       3.35431e+02
  8.900      2.40881e+02       1.88627e+01       1.63896e+01       4.78401e-04       3.30732e+02
  9.000      2.39984e+02       1.91560e+01       1.63320e+01       4.73439e-04       3.26083e+02
  9.100      2.39085e+02       1.94478e+01       1.62828e+01       4.68513e-04       3.21482e+02
  9.200      2.38186e+02       1.97360e+01       1.62342e+01       4.63622e-04       3.16929e+02
  9.300      2.37287e+02       2.00156e+01       1.61722e+01       4.58765e-04       3.12424e+02
  9.400      2.36389e+02       2.02818e+01       1.60827e+01       4.53937e-04       3.07967e+02
  9.500      2.35494e+02       2.05297e+01       1.59516e+01       4.49137e-04       3.03557e+02
  9.600      2.34602e+02       2.07544e+01       1.57649e+01       4.44363e-04       2.99193e+02
  9.700      2.33716e+02       2.09499e+01       1.55237e+01       4.39610e-04       2.94875e+02
  9.800      2.32840e+02       2.11069e+01       1.52643e+01       4.34872e-04       2.90604e+02
  9.900      2.31978e+02       2.12161e+01       1.50282e+01       4.30142e-04       2.86378e+02
 10.000      2.31134e+02       2.12680e+01       1.48567e+01       4.25413e-04       2.82199e+02
 10.100      2.30312e+02       2.12530e+01       1.47910e+01       4.20679e-04       2.78066e+02
 10.200      2.29516e+02       2.11619e+01       1.48723e+01       4.15934e-04       2.73980e+02
 10.300      2.28750e+02       2.09959e+01       1.51166e+01       4.11173e-04       2.69940e+02
 10.400      2.28014e+02       2.07775e+01       1.54906e+01       4.06397e-04       2.65947e+02
 10.500      2.27310e+02       2.05314e+01       1.59558e+01       4.01607e-04       2.62000e+02
 10.600      2.26637e+02       2.02823e+01       1.64734e+01       3.96804e-04       2.58101e+02
 10.700      2.25997e+02       2.00551e+01       1.70047e+01       3.91989e-04       2.54249e+02
 10.800      2.25390e+02       1.98743e+01       1.75111e+01       3.87163e-04       2.50444e+02
 10.900      2.24817e+02       1.97617e+01       1.79589e+01       3.82327e-04       2.46686e+02
 11.000      2.24276e+02       1.97209e+01       1.83431e+01       3.77485e-04       2.42976e+02
 11.100      2.23766e+02       1.97489e+01       1.86691e+01       3.72643e-04       2.39314e+02
 11.200      2.23285e+02       1.98432e+01       1.89422e+01       3.67804e-04       2.35699e+02
 11.300      2.22832e+02       2.00008e+01       1.91678e+01       3.62973e-04       2.32131e+02
 11.400      2.22404e+02       2.02191e+01       1.93510e+01       3.58156e-04       2.28611e+02
 11.500      2.22002e+02       2.04951e+01       1.94973e+01       3.53355e-04       2.25139e+02
 11.600      2.21622e+02       2.08242e+01       1.96127e+01       3.48576e-04       2.21713e+02
 11.700      2.21262e+02       2.11923e+01       1.97071e+01       3.43823e-04       2.18335e+02
 11.800      2.20919e+02       2.15831e+01       1.97914e+01       3.39101e-04       2.15003e+02
 11.900      2.20590e+02       2.19800e+01       1.98764e+01       3.34416e-04       2.11716e+02
 12.000      2.20272e+02       2.23667e+01       1.99731e+01       3.29771e-04       2.08475e+02
 12.100      2.19963e+02       2.27266e+01       2.00922e+01       3.25171e-04       2.05279e+02
 12.200      2.19659e+02       2.30433e+01       2.02447e+01       3.20621e-04       2.02127e+02
 12.300      2.19358e+02       2.33004e+01       2.04414e+01       3.16124e-04       1.99018e+02
 12.400      2.19059e+02       2.34930e+01       2.06826e+01       3.11681e-04       1.95953e+02
 12.500      2.18762e+02       2.36344e+01       2.09526e+01       3.07289e-04       1.92931e+02
 12.600      2.18471e+02       2.37394e+01       2.12337e+01       3.02947e-04       1.89951e+02
 12.700      2.18187e+02       2.38230e+01       2.15085e+01       2.98651e-04       1.87014e+02
 12.800      2.17911e+02       2.39002e+01       2.17594e+01       2.94398e-04       1.84118e+02
 12.900      2.17646e+02       2.39858e+01       2.19691e+01       2.90187e-04       1.81264e+02
 13.000      2.17394e+02       2.40948e+01       2.21200e+01       2.86014e-04       1.78450e+02
 13.100      2.17156e+02       2.42421e+01       2.21947e+01       2.81878e-04       1.75677e+02
 13.200      2.16934e+02       2.44402e+01       2.21775e+01       2.77777e-04       1.72944e+02
 13.300      2.16727e+02       2.46800e+01       2.20683e+01       2.73713e-04       1.70251e+02
 13.400      2.16532e+02       2.49414e+01       2.18752e+01       2.69689e-04       1.67598e+02
 13.500      2.16348e+02       2.52044e+01       2.16062e+01       2.65709e-04       1.64984e+02
 13.600      2.16172e+02       2.54488e+01       2.12694e+01       2.61776e-04       1.62409e+02
 13.700      2.16001e+02       2.56546e+01       2.08728e+01       2.57893e-04       1.59874e+02
 13.800      2.15833e+02       2.58016e+01       2.04245e+01       2.54063e-04       1.57377e+02
 13.900      2.15666e+02       2.58696e+01       1.99325e+01       2.50289e-04       1.54919e+02
 14.000      2.15498e+02       2.58387e+01       1.94048e+01       2.46572e-04       1.52500e+02
 14.100      2.15325e+02       2.56887e+01       1.88496e+01       2.42917e-04       1.50118e+02
 14.200      2.15146e+02       2.54043e+01       1.82748e+01       2.39322e-04       1.47775e+02
 14.300      2.14962e+02       2.49936e+01       1.76882e+01       2.35787e-04       1.45467e+02
 14.400      2.14772e+02       2.44712e+01       1.70974e+01       2.32308e-04       1.43194e+02
 14.500      2.14578e+02       2.38516e+01       1.65102e+01       2.28880e-04       1.40953e+02
 14.600      2.14380e+02       2.31495e+01       1.59343e+01       2.25501e-04       1.38745e+02
 14.700      2.14180e+02       2.23794e+01       1.53773e+01       2.22168e-04       1.36566e+02
 14.800      2.13977e+02       2.15561e+01       1.48470e+01       2.18878e-04       1.34416e+02
 14.900      2.13772e+02       2.06940e+01       1.43509e+01       2.15628e-04       1.32293e+02
 15.000      2.13567e+02       1.98079e+01       1.38969e+01       2.12415e-04       1.30197e+02
 15.100      2.13361e+02       1.89123e+01       1.34926e+01       2.09237e-04       1.28125e+02
 15.200      2.13156e+02       1.80218e+01       1.31458e+01       2.06091e-04       1.26078e+02
 15.300      2.12953e+02       1.71508e+01       1.28637e+01       2.02975e-04       1.24053e+02
 15.400      2.12752e+02       1.63069e+01       1.26472e+01       1.99890e-04       1.22052e+02
 15.500      2.12554e+02       1.54903e+01       1.24894e+01       1.96835e-04       1.20075e+02
 15.600      2.12361e+02       1.47010e+01       1.23833e+01       1.93814e-04       1.18125e+02
 15.700      2.12175e+02       1.39389e+01       1.23219e+01       1.90827e-04       1.16202e+02
 15.800      2.11995e+02       1.32039e+01       1.22980e+01       1.87876e-04       1.14309e+02
 15.900      2.11825e+02       1.24958e+01       1.23045e+01       1.84961e-04       1.12445e+02
 16.000      2.11664e+02       1.18146e+01       1.23345e+01       1.82085e-04       1.10612e+02
 16.100      2.11515e+02       1.11602e+01       1.23807e+01       1.79248e-04       1.08812e+02
 16.200      2.11378e+02       1.05325e+01       1.24362e+01       1.76451e-04       1.07045e+02
 16.300      2.11255e+02       9.93138e+00       1.24939e+01       1.73695e-04       1.05311e+02
 16.400      2.11146e+02       9.35675e+00       1.25466e+01       1.70980e-04       1.03612e+02
 16.500      2.11054e+02       8.80853e+00       1.25873e+01       1.68308e-04       1.01949e+02
 16.600      2.10980e+02       8.28662e+00       1.26089e+01       1.65679e-04       1.00321e+02
 16.700      2.10924e+02       7.79084e+00       1.26051e+01       1.63094e-04       9.87290e+01
 16.800      2.10886e+02       7.32045e+00       1.25748e+01       1.60551e-04       9.71724e+01
 16.900      2.10867e+02       6.87446e+00       1.25194e+01       1.58049e-04       9.56490e+01
 17.000      2.10864e+02       6.45187e+00       1.24403e+01       1.55586e-04       9.41573e+01
 17.100      2.10878e+02       6.05167e+00       1.23389e+01       1.53160e-04       9.26958e+01
 17.200      2.10908e+02       5.67288e+00       1.22164e+01       1.50771e-04       9.12629e+01
 17.300      2.10953e+02       5.31450e+00       1.20744e+01       1.48418e-04       8.98574e+01
 17.400      2.11013e+02       4.97552e+00       1.19141e+01       1.46098e-04       8.84777e+01
 17.500      2.11086e+02       4.65496e+00       1.17370e+01       1.43810e-04       8.71227e+01
 17.600      2.11173e+02       4.35181e+00       1.15444e+01       1.41554e-04       8.57911e+01
 17.700      2.11272e+02       4.06508e+00       1.13377e+01       1.39328e-04       8.44817e+01
 17.800      2.11383e+02       3.79377e+00       1.11183e+01       1.37131e-04       8.31934e+01
 17.900      2.11506e+02       3.53687e+00       1.08875e+01       1.34963e-04       8.19252e+01
 18.000      2.11639e+02       3.29341e+00       1.06467e+01       1.32821e-04       8.06760e+01
 18.100      2.11781e+02       3.06237e+00       1.03974e+01       1.30706e-04       7.94448e+01
 18.200      2.11933e+02       2.84275e+00       1.01408e+01       1.28616e-04       7.82308e+01
 18.300      2.12094e+02       2.63358e+00       9.87834e+00       1.26551e-04       7.70330e+01
 18.400      2.12262e+02       2.43384e+00       9.61141e+00       1.24510e-04       7.58506e+01
 18.500      2.12438e+02       2.24253e+00       9.34138e+00       1.22492e-04       7.46828e+01
 18.600      2.12620e+02       2.05867e+00       9.06962e+00       1.20496e-04       7.35289e+01
 18.700      2.12808e+02       1.88124e+00       8.79751e+00       1.18521e-04       7.23881e+01
 18.800      2.13002e+02       1.70927e+00       8.52642e+00       1.16568e-04       7.12598e+01
 18.900      2.13200e+02       1.54174e+00       8.25772e+00       1.14635e-04       7.01434e+01
 19.000      2.13401e+02       1.37774e+00       7.99266e+00       1.12722e-04       6.90382e+01
 19.100      2.13607e+02       1.21674e+00       7.73167e+00       1.10830e-04       6.79447e+01
 19.200      2.13815e+02       1.05841e+00       7.47492e+00       1.08960e-04       6.68634e+01
 19.300      2.14025e+02       9.02386e-01       7.22256e+00       1.07114e-04       6.57948e+01
 19.400      2.14237e+02       7.48311e-01       6.97474e+00       1.05291e-04       6.47394e+01
 19.500      2.14450e+02       5.95832e-01       6.73161e+00       1.03494e-04       6.36976e+01
 19.600      2.14664e+02       4.44598e-01       6.49332e+00       1.01723e-04       6.26697e+01
 19.700      2.14878e+02       2.94253e-01       6.26003e+00       9.99780e-05       6.16563e+01
 19.800      2.15091e+02       1.44446e-01       6.03190e+00       9.82611e-05       6.06576e+01
 19.900      2.15303e+02      -5.18155e-03       5.80907e+00       9.65722e-05       5.96738e+01
 20.000      2.15513e+02      -1.54982e-01       5.59170e+00       9.49122e-05       5.87054e+01
 20.100      2.15722e+02      -3.05309e-01       5.37993e+00       9.32813e-05       5.77524e+01
 20.200      2.15927e+02      -4.56517e-01       5.17393e+00       9.16802e-05       5.68153e+01
 20.300      2.16130e+02      -6.08956e-01       4.97385e+00       9.01092e-05       5.58940e+01
