# Data Source: NASA MERRA (version 2)
# Model Time = 2011-08-30 18:00:00
# Location = [  39.1026,  -84.5123 ]
# Fields = [ Z(km), T(K), U(m/s), V(m/s), R(g/cm3), P(mbar) ]
# Ground Height = 0.165
  0.000      2.99887e+02      -1.42827e+00       5.38156e-01       1.18277e-03       1.01798e+03
  0.100      2.99050e+02      -1.49442e+00       5.44550e-01       1.17257e-03       1.00638e+03
  0.200      2.98239e+02      -1.53838e+00       5.50754e-01       1.16236e-03       9.94921e+02
  0.300      2.97408e+02      -1.60009e+00       5.57109e-01       1.15233e-03       9.83585e+02
  0.400      2.96509e+02      -1.71931e+00       5.64012e-01       1.14265e-03       9.72369e+02
  0.500      2.95521e+02      -1.90949e+00       5.79604e-01       1.13337e-03       9.61262e+02
  0.600      2.94472e+02      -2.13092e+00       6.27679e-01       1.12438e-03       9.50250e+02
  0.700      2.93393e+02      -2.34433e+00       7.24569e-01       1.11553e-03       9.39323e+02
  0.800      2.92300e+02      -2.53974e+00       8.46548e-01       1.10678e-03       9.28482e+02
  0.900      2.91209e+02      -2.71463e+00       9.64819e-01       1.09807e-03       9.17730e+02
  1.000      2.90168e+02      -2.86230e+00       1.11385e+00       1.08920e-03       9.07065e+02
  1.100      2.89251e+02      -2.97352e+00       1.36693e+00       1.07990e-03       8.96481e+02
  1.200      2.88510e+02      -3.04529e+00       1.74702e+00       1.06999e-03       8.85978e+02
  1.300      2.87969e+02      -3.08435e+00       2.19804e+00       1.05941e-03       8.75569e+02
  1.400      2.87646e+02      -3.09826e+00       2.65714e+00       1.04812e-03       8.65268e+02
  1.500      2.87564e+02      -3.09456e+00       3.06145e+00       1.03608e-03       8.55086e+02
  1.600      2.87739e+02      -3.08061e+00       3.34988e+00       1.02328e-03       8.45034e+02
  1.700      2.88117e+02      -3.05852e+00       3.50303e+00       1.00994e-03       8.35115e+02
  1.800      2.88573e+02      -3.02517e+00       3.54366e+00       9.96518e-04       8.25320e+02
  1.900      2.88978e+02      -2.97719e+00       3.49637e+00       9.83451e-04       8.15642e+02
  2.000      2.89203e+02      -2.91119e+00       3.38580e+00       9.71155e-04       8.06072e+02
  2.100      2.89122e+02      -2.82385e+00       3.23642e+00       9.60018e-04       7.96604e+02
  2.200      2.88695e+02      -2.71332e+00       3.06492e+00       9.50126e-04       7.87232e+02
  2.300      2.88012e+02      -2.57992e+00       2.87685e+00       9.41155e-04       7.77954e+02
  2.400      2.87172e+02      -2.42415e+00       2.67686e+00       9.32764e-04       7.68768e+02
  2.500      2.86273e+02      -2.24650e+00       2.46960e+00       9.24620e-04       7.59672e+02
  2.600      2.85416e+02      -2.04746e+00       2.25972e+00       9.16401e-04       7.50664e+02
  2.700      2.84682e+02      -1.82838e+00       2.05195e+00       9.07843e-04       7.41743e+02
  2.800      2.84073e+02      -1.59495e+00       1.85133e+00       8.98956e-04       7.32909e+02
  2.900      2.83562e+02      -1.35418e+00       1.66300e+00       8.89828e-04       7.24163e+02
  3.000      2.83125e+02      -1.11310e+00       1.49213e+00       8.80547e-04       7.15506e+02
  3.100      2.82737e+02      -8.78738e-01       1.34386e+00       8.71199e-04       7.06939e+02
  3.200      2.82371e+02      -6.58104e-01       1.22333e+00       8.61866e-04       6.98461e+02
  3.300      2.82007e+02      -4.56571e-01       1.13296e+00       8.52616e-04       6.90074e+02
  3.400      2.81632e+02      -2.75642e-01       1.06876e+00       8.43487e-04       6.81776e+02
  3.500      2.81232e+02      -1.16269e-01       1.02587e+00       8.34512e-04       6.73565e+02
  3.600      2.80798e+02       2.05963e-02       9.99380e-01       8.25721e-04       6.65441e+02
  3.700      2.80316e+02       1.34005e-01       9.84413e-01       8.17147e-04       6.57401e+02
  3.800      2.79775e+02       2.23005e-01       9.76080e-01       8.08817e-04       6.49444e+02
  3.900      2.79168e+02       2.89165e-01       9.69400e-01       8.00747e-04       6.41569e+02
  4.000      2.78505e+02       3.42217e-01       9.59095e-01       7.92903e-04       6.33774e+02
  4.100      2.77796e+02       3.93547e-01       9.39823e-01       7.85247e-04       6.26057e+02
  4.200      2.77054e+02       4.54541e-01       9.06244e-01       7.77738e-04       6.18415e+02
  4.300      2.76293e+02       5.36584e-01       8.53018e-01       7.70338e-04       6.10847e+02
  4.400      2.75523e+02       6.51062e-01       7.74805e-01       7.63011e-04       6.03352e+02
  4.500      2.74757e+02       8.08780e-01       6.66532e-01       7.55721e-04       5.95926e+02
  4.600      2.74002e+02       1.00986e+00       5.28065e-01       7.48450e-04       5.88570e+02
  4.700      2.73259e+02       1.24504e+00       3.63603e-01       7.41194e-04       5.81284e+02
  4.800      2.72531e+02       1.50475e+00       1.77490e-01       7.33949e-04       5.74068e+02
  4.900      2.71819e+02       1.77940e+00      -2.59236e-02       7.26712e-04       5.66923e+02
  5.000      2.71126e+02       2.05943e+00      -2.42293e-01       7.19480e-04       5.59849e+02
  5.100      2.70452e+02       2.33525e+00      -4.67272e-01       7.12249e-04       5.52846e+02
  5.200      2.69801e+02       2.59751e+00      -6.96576e-01       7.05017e-04       5.45915e+02
  5.300      2.69169e+02       2.84047e+00      -9.26902e-01       6.97792e-04       5.39054e+02
  5.400      2.68550e+02       3.06122e+00      -1.15572e+00       6.90591e-04       5.32265e+02
  5.500      2.67939e+02       3.25692e+00      -1.38051e+00       6.83428e-04       5.25547e+02
  5.600      2.67331e+02       3.42474e+00      -1.59877e+00       6.76319e-04       5.18899e+02
  5.700      2.66718e+02       3.56185e+00      -1.80798e+00       6.69280e-04       5.12321e+02
  5.800      2.66096e+02       3.66542e+00      -2.00565e+00       6.62323e-04       5.05812e+02
  5.900      2.65458e+02       3.73260e+00      -2.18924e+00       6.55463e-04       4.99374e+02
  6.000      2.64800e+02       3.76665e+00      -2.35716e+00       6.48710e-04       4.93004e+02
  6.100      2.64122e+02       3.78890e+00      -2.51045e+00       6.42059e-04       4.86700e+02
  6.200      2.63425e+02       3.82408e+00      -2.65068e+00       6.35505e-04       4.80461e+02
  6.300      2.62710e+02       3.89693e+00      -2.77939e+00       6.29042e-04       4.74285e+02
  6.400      2.61978e+02       4.03216e+00      -2.89816e+00       6.22666e-04       4.68168e+02
  6.500      2.61229e+02       4.25451e+00      -3.00852e+00       6.16371e-04       4.62111e+02
  6.600      2.60465e+02       4.58870e+00      -3.11204e+00       6.10153e-04       4.56110e+02
  6.700      2.59685e+02       5.05946e+00      -3.21027e+00       6.04006e-04       4.50164e+02
  6.800      2.58893e+02       5.68279e+00      -3.30552e+00       5.97925e-04       4.44271e+02
  6.900      2.58092e+02       6.43686e+00      -3.40332e+00       5.91901e-04       4.38435e+02
  7.000      2.57289e+02       7.28952e+00      -3.51008e+00       5.85925e-04       4.32659e+02
  7.100      2.56491e+02       8.20865e+00      -3.63222e+00       5.79986e-04       4.26945e+02
  7.200      2.55703e+02       9.16210e+00      -3.77616e+00       5.74077e-04       4.21296e+02
  7.300      2.54931e+02       1.01177e+01      -3.94831e+00       5.68187e-04       4.15715e+02
  7.400      2.54182e+02       1.10435e+01      -4.15508e+00       5.62307e-04       4.10205e+02
  7.500      2.53462e+02       1.19071e+01      -4.40289e+00       5.56430e-04       4.04767e+02
  7.600      2.52776e+02       1.26765e+01      -4.69815e+00       5.50547e-04       3.99403e+02
  7.700      2.52128e+02       1.33286e+01      -5.04373e+00       5.44651e-04       3.94114e+02
  7.800      2.51513e+02       1.38661e+01      -5.43229e+00       5.38746e-04       3.88890e+02
  7.900      2.50925e+02       1.42963e+01      -5.85471e+00       5.32835e-04       3.83724e+02
  8.000      2.50357e+02       1.46264e+01      -6.30185e+00       5.26921e-04       3.78606e+02
  8.100      2.49803e+02       1.48638e+01      -6.76457e+00       5.21007e-04       3.73528e+02
  8.200      2.49255e+02       1.50158e+01      -7.23373e+00       5.15098e-04       3.68482e+02
  8.300      2.48709e+02       1.50897e+01      -7.70020e+00       5.09197e-04       3.63462e+02
  8.400      2.48156e+02       1.50927e+01      -8.15484e+00       5.03308e-04       3.58460e+02
  8.500      2.47592e+02       1.50322e+01      -8.58852e+00       4.97433e-04       3.53470e+02
  8.600      2.47009e+02       1.49155e+01      -8.99214e+00       4.91577e-04       3.48486e+02
  8.700      2.46403e+02       1.47487e+01      -9.36038e+00       4.85754e-04       3.43513e+02
  8.800      2.45775e+02       1.45362e+01      -9.69421e+00       4.79992e-04       3.38574e+02
  8.900      2.45125e+02       1.42822e+01      -9.99517e+00       4.74323e-04       3.33690e+02
  9.000      2.44454e+02       1.39908e+01      -1.02649e+01       4.68774e-04       3.28884e+02
  9.100      2.43763e+02       1.36661e+01      -1.05048e+01       4.63373e-04       3.24176e+02
  9.200      2.43053e+02       1.33123e+01      -1.07166e+01       4.58146e-04       3.19585e+02
  9.300      2.42323e+02       1.29336e+01      -1.09018e+01       4.53116e-04       3.15128e+02
  9.400      2.41576e+02       1.25342e+01      -1.10620e+01       4.48308e-04       3.10822e+02
  9.500      2.40811e+02       1.21181e+01      -1.11988e+01       4.43745e-04       3.06684e+02
  9.600      2.40029e+02       1.16896e+01      -1.13137e+01       4.39447e-04       3.02728e+02
  9.700      2.39231e+02       1.12528e+01      -1.14082e+01       4.35437e-04       2.98967e+02
  9.800      2.38418e+02       1.08122e+01      -1.14865e+01       4.31715e-04       2.95405e+02
  9.900      2.37592e+02       1.03728e+01      -1.15566e+01       4.28252e-04       2.92020e+02
 10.000      2.36755e+02       9.93970e+00      -1.16274e+01       4.25013e-04       2.88790e+02
 10.100      2.35909e+02       9.51804e+00      -1.17074e+01       4.21967e-04       2.85697e+02
 10.200      2.35057e+02       9.11289e+00      -1.18053e+01       4.19083e-04       2.82720e+02
 10.300      2.34201e+02       8.72935e+00      -1.19299e+01       4.16331e-04       2.79840e+02
 10.400      2.33343e+02       8.37250e+00      -1.20897e+01       4.13682e-04       2.77041e+02
 10.500      2.32484e+02       8.04744e+00      -1.22934e+01       4.11108e-04       2.74304e+02
 10.600      2.31628e+02       7.75928e+00      -1.25498e+01       4.08580e-04       2.71613e+02
 10.700      2.30776e+02       7.51309e+00      -1.28675e+01       4.06071e-04       2.68952e+02
 10.800      2.29931e+02       7.31398e+00      -1.32552e+01       4.03556e-04       2.66307e+02
 10.900      2.29094e+02       7.16705e+00      -1.37215e+01       4.01007e-04       2.63661e+02
 11.000      2.28267e+02       7.07738e+00      -1.42751e+01       3.98400e-04       2.61003e+02
 11.100      2.27454e+02       7.05007e+00      -1.49247e+01       3.95709e-04       2.58316e+02
 11.200      2.26656e+02       7.09022e+00      -1.56790e+01       3.92912e-04       2.55590e+02
 11.300      2.25874e+02       7.20292e+00      -1.65466e+01       3.89984e-04       2.52811e+02
 11.400      2.25113e+02       7.39327e+00      -1.75363e+01       3.86903e-04       2.49968e+02
 11.500      2.24372e+02       7.66303e+00      -1.86502e+01       3.83652e-04       2.47052e+02
 11.600      2.23652e+02       8.00114e+00      -1.98664e+01       3.80231e-04       2.44063e+02
 11.700      2.22952e+02       8.39339e+00      -2.11565e+01       3.76645e-04       2.41004e+02
 11.800      2.22271e+02       8.82560e+00      -2.24926e+01       3.72898e-04       2.37878e+02
 11.900      2.21609e+02       9.28359e+00      -2.38465e+01       3.68996e-04       2.34688e+02
 12.000      2.20964e+02       9.75318e+00      -2.51901e+01       3.64943e-04       2.31435e+02
 12.100      2.20337e+02       1.02202e+01      -2.64952e+01       3.60744e-04       2.28123e+02
 12.200      2.19727e+02       1.06704e+01      -2.77337e+01       3.56406e-04       2.24755e+02
 12.300      2.19132e+02       1.10896e+01      -2.88776e+01       3.51934e-04       2.21334e+02
 12.400      2.18552e+02       1.14637e+01      -2.98987e+01       3.47334e-04       2.17863e+02
 12.500      2.17986e+02       1.17784e+01      -3.07688e+01       3.42612e-04       2.14345e+02
 12.600      2.17435e+02       1.20196e+01      -3.14600e+01       3.37774e-04       2.10784e+02
 12.700      2.16896e+02       1.21731e+01      -3.19440e+01       3.32828e-04       2.07182e+02
 12.800      2.16369e+02       1.22247e+01      -3.21927e+01       3.27778e-04       2.03543e+02
 12.900      2.15854e+02       1.21602e+01      -3.21780e+01       3.22633e-04       1.99871e+02
 13.000      2.15350e+02       1.19708e+01      -3.18822e+01       3.17401e-04       1.96170e+02
 13.100      2.14857e+02       1.16670e+01      -3.13252e+01       3.12103e-04       1.92455e+02
 13.200      2.14376e+02       1.12637e+01      -3.05354e+01       3.06761e-04       1.88738e+02
 13.300      2.13908e+02       1.07757e+01      -2.95410e+01       3.01397e-04       1.85033e+02
 13.400      2.13454e+02       1.02179e+01      -2.83703e+01       2.96030e-04       1.81352e+02
 13.500      2.13013e+02       9.60506e+00      -2.70518e+01       2.90679e-04       1.77706e+02
 13.600      2.12587e+02       8.95217e+00      -2.56137e+01       2.85360e-04       1.74106e+02
 13.700      2.12176e+02       8.27406e+00      -2.40843e+01       2.80092e-04       1.70561e+02
 13.800      2.11782e+02       7.58556e+00      -2.24921e+01       2.74888e-04       1.67080e+02
 13.900      2.11403e+02       6.90155e+00      -2.08652e+01       2.69763e-04       1.63672e+02
 14.000      2.11042e+02       6.23688e+00      -1.92320e+01       2.64729e-04       1.60344e+02
 14.100      2.10699e+02       5.60642e+00      -1.76210e+01       2.59799e-04       1.57102e+02
 14.200      2.10374e+02       5.02503e+00      -1.60603e+01       2.54983e-04       1.53952e+02
 14.300      2.10068e+02       4.50757e+00      -1.45783e+01       2.50292e-04       1.50899e+02
 14.400      2.09781e+02       4.06776e+00      -1.32015e+01       2.45733e-04       1.47949e+02
 14.500      2.09515e+02       3.70754e+00      -1.19366e+01       2.41307e-04       1.45099e+02
 14.600      2.09267e+02       3.42190e+00      -1.07790e+01       2.37005e-04       1.42344e+02
 14.700      2.09038e+02       3.20571e+00      -9.72365e+00       2.32823e-04       1.39679e+02
 14.800      2.08827e+02       3.05387e+00      -8.76569e+00       2.28754e-04       1.37100e+02
 14.900      2.08635e+02       2.96125e+00      -7.90021e+00       2.24792e-04       1.34602e+02
 15.000      2.08460e+02       2.92274e+00      -7.12227e+00       2.20934e-04       1.32180e+02
 15.100      2.08301e+02       2.93323e+00      -6.42695e+00       2.17173e-04       1.29831e+02
 15.200      2.08160e+02       2.98760e+00      -5.80935e+00       2.13504e-04       1.27552e+02
 15.300      2.08035e+02       3.08073e+00      -5.26454e+00       2.09924e-04       1.25338e+02
 15.400      2.07926e+02       3.20750e+00      -4.78761e+00       2.06428e-04       1.23185e+02
 15.500      2.07832e+02       3.36281e+00      -4.37362e+00       2.03012e-04       1.21092e+02
 15.600      2.07753e+02       3.54154e+00      -4.01768e+00       1.99672e-04       1.19055e+02
 15.700      2.07689e+02       3.73856e+00      -3.71486e+00       1.96404e-04       1.17070e+02
 15.800      2.07639e+02       3.94877e+00      -3.46024e+00       1.93205e-04       1.15135e+02
 15.900      2.07602e+02       4.16705e+00      -3.24891e+00       1.90071e-04       1.13248e+02
 16.000      2.07580e+02       4.38828e+00      -3.07594e+00       1.86999e-04       1.11405e+02
 16.100      2.07570e+02       4.60735e+00      -2.93642e+00       1.83986e-04       1.09605e+02
 16.200      2.07572e+02       4.81914e+00      -2.82543e+00       1.81030e-04       1.07845e+02
 16.300      2.07587e+02       5.01853e+00      -2.73806e+00       1.78126e-04       1.06123e+02
 16.400      2.07613e+02       5.20041e+00      -2.66938e+00       1.75273e-04       1.04437e+02
 16.500      2.07651e+02       5.35967e+00      -2.61448e+00       1.72468e-04       1.02784e+02
 16.600      2.07700e+02       5.49119e+00      -2.56843e+00       1.69709e-04       1.01163e+02
 16.700      2.07759e+02       5.58988e+00      -2.52635e+00       1.66993e-04       9.95727e+01
 16.800      2.07828e+02       5.65291e+00      -2.48489e+00       1.64319e-04       9.80107e+01
 16.900      2.07907e+02       5.68168e+00      -2.44361e+00       1.61685e-04       9.64764e+01
 17.000      2.07996e+02       5.67801e+00      -2.40237e+00       1.59090e-04       9.49686e+01
 17.100      2.08093e+02       5.64373e+00      -2.36104e+00       1.56534e-04       9.34866e+01
 17.200      2.08199e+02       5.58066e+00      -2.31947e+00       1.54016e-04       9.20294e+01
 17.300      2.08313e+02       5.49064e+00      -2.27754e+00       1.51534e-04       9.05964e+01
 17.400      2.08436e+02       5.37549e+00      -2.23511e+00       1.49089e-04       8.91865e+01
 17.500      2.08566e+02       5.23703e+00      -2.19203e+00       1.46678e-04       8.77990e+01
 17.600      2.08703e+02       5.07710e+00      -2.14818e+00       1.44302e-04       8.64333e+01
 17.700      2.08847e+02       4.89752e+00      -2.10340e+00       1.41959e-04       8.50886e+01
 17.800      2.08997e+02       4.70012e+00      -2.05758e+00       1.39648e-04       8.37641e+01
 17.900      2.09154e+02       4.48673e+00      -2.01057e+00       1.37370e-04       8.24594e+01
 18.000      2.09316e+02       4.25918e+00      -1.96224e+00       1.35123e-04       8.11736e+01
 18.100      2.09484e+02       4.01928e+00      -1.91244e+00       1.32907e-04       7.99063e+01
 18.200      2.09657e+02       3.76888e+00      -1.86104e+00       1.30721e-04       7.86568e+01
 18.300      2.09834e+02       3.50980e+00      -1.80791e+00       1.28564e-04       7.74246e+01
 18.400      2.10016e+02       3.24386e+00      -1.75290e+00       1.26436e-04       7.62091e+01
 18.500      2.10202e+02       2.97289e+00      -1.69589e+00       1.24337e-04       7.50099e+01
 18.600      2.10392e+02       2.69873e+00      -1.63673e+00       1.22265e-04       7.38264e+01
 18.700      2.10585e+02       2.42319e+00      -1.57528e+00       1.20220e-04       7.26583e+01
 18.800      2.10781e+02       2.14811e+00      -1.51142e+00       1.18202e-04       7.15050e+01
 18.900      2.10979e+02       1.87531e+00      -1.44500e+00       1.16210e-04       7.03661e+01
 19.000      2.11180e+02       1.60653e+00      -1.37590e+00       1.14243e-04       6.92412e+01
 19.100      2.11382e+02       1.34250e+00      -1.30422e+00       1.12303e-04       6.81304e+01
 19.200      2.11587e+02       1.08332e+00      -1.23018e+00       1.10389e-04       6.70341e+01
 19.300      2.11792e+02       8.29073e-01      -1.15401e+00       1.08502e-04       6.59525e+01
 19.400      2.11999e+02       5.79838e-01      -1.07593e+00       1.06643e-04       6.48858e+01
 19.500      2.12207e+02       3.35704e-01      -9.96164e-01       1.04812e-04       6.38343e+01
 19.600      2.12415e+02       9.67563e-02      -9.14946e-01       1.03010e-04       6.27982e+01
 19.700      2.12624e+02      -1.36919e-01      -8.32499e-01       1.01236e-04       6.17777e+01
 19.800      2.12833e+02      -3.65233e-01      -7.49050e-01       9.94922e-05       6.07730e+01
 19.900      2.13042e+02      -5.88110e-01      -6.64822e-01       9.77774e-05       5.97841e+01
 20.000      2.13251e+02      -8.05458e-01      -5.80042e-01       9.60923e-05       5.88113e+01
 20.100      2.13458e+02      -1.01719e+00      -4.94936e-01       9.44369e-05       5.78545e+01
 20.200      2.13665e+02      -1.22323e+00      -4.09731e-01       9.28116e-05       5.69139e+01
 20.300      2.13871e+02      -1.42348e+00      -3.24653e-01       9.12164e-05       5.59896e+01
