# Data Source: NASA MERRA (version 1)
# Model Time = 2011-06-11 18:00:00
# Location = [  39.1026,  -84.5123 ]
# Fields = [ Z(km), T(K), U(m/s), V(m/s), R(g/cm3), P(mbar) ]
# Ground Height = 0.165
  0.000      3.02691e+02       4.27708e+00      -7.51348e-01       1.16489e-03       1.01197e+03
  0.100      3.02007e+02       4.39270e+00      -7.29432e-01       1.15426e-03       1.00047e+03
  0.200      3.01327e+02       4.50275e+00      -7.07450e-01       1.14372e-03       9.89095e+02
  0.300      3.00544e+02       4.74353e+00      -6.87026e-01       1.13369e-03       9.77879e+02
  0.400      2.99573e+02       5.22766e+00      -6.69104e-01       1.12453e-03       9.66840e+02
  0.500      2.98505e+02       5.85537e+00      -6.48520e-01       1.11584e-03       9.55947e+02
  0.600      2.97522e+02       6.41895e+00      -6.17088e-01       1.10687e-03       9.45146e+02
  0.700      2.96663e+02       6.83301e+00      -5.72614e-01       1.09747e-03       9.34416e+02
  0.800      2.95804e+02       7.15271e+00      -5.19759e-01       1.08812e-03       9.23772e+02
  0.900      2.94856e+02       7.43328e+00      -4.61836e-01       1.07916e-03       9.13224e+02
  1.000      2.93867e+02       7.70847e+00      -3.97286e-01       1.07039e-03       9.02767e+02
  1.100      2.92901e+02       8.00599e+00      -3.23460e-01       1.06158e-03       8.92392e+02
  1.200      2.91983e+02       8.33268e+00      -2.35617e-01       1.05264e-03       8.82101e+02
  1.300      2.91116e+02       8.68414e+00      -1.27890e-01       1.04356e-03       8.71895e+02
  1.400      2.90304e+02       9.05589e+00       5.59764e-03       1.03433e-03       8.61778e+02
  1.500      2.89550e+02       9.44343e+00       1.70725e-01       1.02496e-03       8.51752e+02
  1.600      2.88854e+02       9.84207e+00       3.70093e-01       1.01545e-03       8.41820e+02
  1.700      2.88210e+02       1.02458e+01       5.83903e-01       1.00583e-03       8.31983e+02
  1.800      2.87605e+02       1.06480e+01       7.82976e-01       9.96140e-04       8.22239e+02
  1.900      2.87027e+02       1.10422e+01       9.38103e-01       9.86429e-04       8.12589e+02
  2.000      2.86465e+02       1.14216e+01       1.02008e+00       9.76738e-04       8.03031e+02
  2.100      2.85907e+02       1.17794e+01       1.00287e+00       9.67108e-04       7.93565e+02
  2.200      2.85347e+02       1.21023e+01       8.95657e-01       9.57562e-04       7.84190e+02
  2.300      2.84779e+02       1.23737e+01       7.29466e-01       9.48114e-04       7.74907e+02
  2.400      2.84199e+02       1.25770e+01       5.35653e-01       9.38776e-04       7.65713e+02
  2.500      2.83603e+02       1.26952e+01       3.45575e-01       9.29563e-04       7.56610e+02
  2.600      2.82988e+02       1.27119e+01       1.90443e-01       9.20485e-04       7.47595e+02
  2.700      2.82351e+02       1.26270e+01       8.66189e-02       9.11545e-04       7.38668e+02
  2.800      2.81699e+02       1.24709e+01       2.29985e-02       9.02721e-04       7.29828e+02
  2.900      2.81037e+02       1.22774e+01      -1.44969e-02       8.93991e-04       7.21073e+02
  3.000      2.80373e+02       1.20800e+01      -3.99451e-02       8.85334e-04       7.12402e+02
  3.100      2.79712e+02       1.19127e+01      -6.74243e-02       8.76730e-04       7.03815e+02
  3.200      2.79060e+02       1.18077e+01      -1.10374e-01       8.68159e-04       6.95309e+02
  3.300      2.78417e+02       1.17735e+01      -1.70628e-01       8.59618e-04       6.86885e+02
  3.400      2.77782e+02       1.17973e+01      -2.39904e-01       8.51119e-04       6.78541e+02
  3.500      2.77150e+02       1.18658e+01      -3.09582e-01       8.42672e-04       6.70278e+02
  3.600      2.76518e+02       1.19656e+01      -3.71042e-01       8.34289e-04       6.62096e+02
  3.700      2.75882e+02       1.20834e+01      -4.15665e-01       8.25979e-04       6.53994e+02
  3.800      2.75239e+02       1.22061e+01      -4.35092e-01       8.17753e-04       6.45973e+02
  3.900      2.74591e+02       1.23257e+01      -4.26915e-01       8.09607e-04       6.38031e+02
  4.000      2.73941e+02       1.24398e+01      -3.94626e-01       8.01527e-04       6.30169e+02
  4.100      2.73295e+02       1.25460e+01      -3.41967e-01       7.93497e-04       6.22385e+02
  4.200      2.72658e+02       1.26418e+01      -2.72682e-01       7.85504e-04       6.14679e+02
  4.300      2.72035e+02       1.27250e+01      -1.90513e-01       7.77532e-04       6.07052e+02
  4.400      2.71431e+02       1.27931e+01      -9.92048e-02       7.69569e-04       5.99501e+02
  4.500      2.70850e+02       1.28454e+01      -3.35327e-03       7.61607e-04       5.92027e+02
  4.600      2.70288e+02       1.28859e+01       8.96491e-02       7.53653e-04       5.84629e+02
  4.700      2.69743e+02       1.29196e+01       1.71837e-01       7.45721e-04       5.77308e+02
  4.800      2.69210e+02       1.29518e+01       2.35246e-01       7.37821e-04       5.70064e+02
  4.900      2.68685e+02       1.29874e+01       2.71909e-01       7.29964e-04       5.62895e+02
  5.000      2.68166e+02       1.30316e+01       2.73861e-01       7.22162e-04       5.55803e+02
  5.100      2.67649e+02       1.30895e+01       2.33153e-01       7.14424e-04       5.48786e+02
  5.200      2.67130e+02       1.31633e+01       1.46397e-01       7.06759e-04       5.41845e+02
  5.300      2.66607e+02       1.32486e+01       2.11668e-02       6.99170e-04       5.34979e+02
  5.400      2.66079e+02       1.33396e+01      -1.33348e-01       6.91663e-04       5.28186e+02
  5.500      2.65544e+02       1.34310e+01      -3.07962e-01       6.84238e-04       5.21466e+02
  5.600      2.65000e+02       1.35172e+01      -4.93485e-01       6.76901e-04       5.14817e+02
  5.700      2.64446e+02       1.35926e+01      -6.80731e-01       6.69653e-04       5.08240e+02
  5.800      2.63879e+02       1.36517e+01      -8.60513e-01       6.62499e-04       5.01732e+02
  5.900      2.63298e+02       1.36896e+01      -1.02393e+00       6.55439e-04       4.95293e+02
  6.000      2.62704e+02       1.37069e+01      -1.16470e+00       6.48471e-04       4.88922e+02
  6.100      2.62099e+02       1.37074e+01      -1.27800e+00       6.41589e-04       4.82619e+02
  6.200      2.61485e+02       1.36947e+01      -1.35898e+00       6.34787e-04       4.76383e+02
  6.300      2.60863e+02       1.36725e+01      -1.40282e+00       6.28058e-04       4.70213e+02
  6.400      2.60237e+02       1.36446e+01      -1.40469e+00       6.21397e-04       4.64109e+02
  6.500      2.59607e+02       1.36148e+01      -1.35976e+00       6.14800e-04       4.58070e+02
  6.600      2.58976e+02       1.35866e+01      -1.26319e+00       6.08260e-04       4.52096e+02
  6.700      2.58346e+02       1.35640e+01      -1.11079e+00       6.01772e-04       4.46185e+02
  6.800      2.57718e+02       1.35514e+01      -9.06225e-01       5.95334e-04       4.40338e+02
  6.900      2.57092e+02       1.35542e+01      -6.58543e-01       5.88943e-04       4.34554e+02
  7.000      2.56470e+02       1.35773e+01      -3.76881e-01       5.82597e-04       4.28833e+02
  7.100      2.55853e+02       1.36262e+01      -7.03780e-02       5.76296e-04       4.23173e+02
  7.200      2.55241e+02       1.37058e+01       2.51825e-01       5.70037e-04       4.17576e+02
  7.300      2.54635e+02       1.38214e+01       5.80590e-01       5.63819e-04       4.12040e+02
  7.400      2.54035e+02       1.39781e+01       9.06773e-01       5.57639e-04       4.06564e+02
  7.500      2.53444e+02       1.41813e+01       1.22124e+00       5.51497e-04       4.01150e+02
  7.600      2.52860e+02       1.44349e+01       1.51528e+00       5.45391e-04       3.95795e+02
  7.700      2.52284e+02       1.47360e+01       1.78361e+00       5.39325e-04       3.90500e+02
  7.800      2.51712e+02       1.50778e+01       2.02252e+00       5.33301e-04       3.85264e+02
  7.900      2.51144e+02       1.54537e+01       2.22830e+00       5.27323e-04       3.80086e+02
  8.000      2.50577e+02       1.58571e+01       2.39726e+00       5.21397e-04       3.74966e+02
  8.100      2.50010e+02       1.62814e+01       2.52570e+00       5.15524e-04       3.69904e+02
  8.200      2.49441e+02       1.67198e+01       2.60991e+00       5.09709e-04       3.64898e+02
  8.300      2.48867e+02       1.71659e+01       2.64620e+00       5.03955e-04       3.59948e+02
  8.400      2.48286e+02       1.76128e+01       2.63087e+00       4.98264e-04       3.55054e+02
  8.500      2.47698e+02       1.80541e+01       2.56022e+00       4.92641e-04       3.50215e+02
  8.600      2.47099e+02       1.84833e+01       2.43219e+00       4.87088e-04       3.45431e+02
  8.700      2.46487e+02       1.88959e+01       2.25231e+00       4.81610e-04       3.40700e+02
  8.800      2.45859e+02       1.92877e+01       2.02824e+00       4.76211e-04       3.36022e+02
  8.900      2.45211e+02       1.96545e+01       1.76765e+00       4.70895e-04       3.31395e+02
  9.000      2.44539e+02       1.99922e+01       1.47820e+00       4.65667e-04       3.26818e+02
  9.100      2.43842e+02       2.02964e+01       1.16758e+00       4.60530e-04       3.22291e+02
  9.200      2.43114e+02       2.05632e+01       8.43458e-01       4.55489e-04       3.17812e+02
  9.300      2.42354e+02       2.07882e+01       5.13494e-01       4.50548e-04       3.13381e+02
  9.400      2.41557e+02       2.09673e+01       1.85368e-01       4.45709e-04       3.08997e+02
  9.500      2.40721e+02       2.10964e+01      -1.33258e-01       4.40978e-04       3.04659e+02
  9.600      2.39843e+02       2.11713e+01      -4.34707e-01       4.36356e-04       3.00365e+02
  9.700      2.38920e+02       2.11889e+01      -7.12204e-01       4.31845e-04       2.96117e+02
  9.800      2.37962e+02       2.11531e+01      -9.63619e-01       4.27429e-04       2.91913e+02
  9.900      2.36979e+02       2.10697e+01      -1.18831e+00       4.23086e-04       2.87753e+02
 10.000      2.35984e+02       2.09443e+01      -1.38564e+00       4.18795e-04       2.83639e+02
 10.100      2.34988e+02       2.07829e+01      -1.55497e+00       4.14536e-04       2.79570e+02
 10.200      2.34003e+02       2.05912e+01      -1.69566e+00       4.10290e-04       2.75546e+02
 10.300      2.33039e+02       2.03749e+01      -1.80708e+00       4.06038e-04       2.71568e+02
 10.400      2.32110e+02       2.01400e+01      -1.88858e+00       4.01760e-04       2.67635e+02
 10.500      2.31226e+02       1.98922e+01      -1.93954e+00       3.97439e-04       2.63748e+02
 10.600      2.30399e+02       1.96374e+01      -1.95930e+00       3.93057e-04       2.59907e+02
 10.700      2.29641e+02       1.93812e+01      -1.94725e+00       3.88596e-04       2.56112e+02
 10.800      2.28963e+02       1.91295e+01      -1.90272e+00       3.84041e-04       2.52362e+02
 10.900      2.28376e+02       1.88880e+01      -1.82514e+00       3.79377e-04       2.48659e+02
 11.000      2.27884e+02       1.86600e+01      -1.71604e+00       3.74604e-04       2.45001e+02
 11.100      2.27476e+02       1.84450e+01      -1.58002e+00       3.69742e-04       2.41388e+02
 11.200      2.27141e+02       1.82423e+01      -1.42189e+00       3.64815e-04       2.37821e+02
 11.300      2.26869e+02       1.80510e+01      -1.24649e+00       3.59843e-04       2.34299e+02
 11.400      2.26649e+02       1.78706e+01      -1.05863e+00       3.54847e-04       2.30822e+02
 11.500      2.26470e+02       1.77002e+01      -8.63154e-01       3.49846e-04       2.27389e+02
 11.600      2.26321e+02       1.75391e+01      -6.64877e-01       3.44859e-04       2.24000e+02
 11.700      2.26191e+02       1.73865e+01      -4.68629e-01       3.39905e-04       2.20655e+02
 11.800      2.26069e+02       1.72418e+01      -2.79231e-01       3.34999e-04       2.17353e+02
 11.900      2.25945e+02       1.71043e+01      -1.01514e-01       3.30159e-04       2.14095e+02
 12.000      2.25807e+02       1.69731e+01       5.97007e-02       3.25399e-04       2.10880e+02
 12.100      2.25645e+02       1.68475e+01       1.99585e-01       3.20734e-04       2.07708e+02
 12.200      2.25449e+02       1.67269e+01       3.13313e-01       3.16176e-04       2.04578e+02
 12.300      2.25206e+02       1.66104e+01       3.96061e-01       3.11739e-04       2.01490e+02
 12.400      2.24907e+02       1.64973e+01       4.43185e-01       3.07434e-04       1.98443e+02
 12.500      2.24548e+02       1.63874e+01       4.54045e-01       3.03262e-04       1.95438e+02
 12.600      2.24134e+02       1.62807e+01       4.31866e-01       2.99214e-04       1.92473e+02
 12.700      2.23669e+02       1.61773e+01       3.80035e-01       2.95279e-04       1.89548e+02
 12.800      2.23158e+02       1.60772e+01       3.01934e-01       2.91450e-04       1.86663e+02
 12.900      2.22604e+02       1.59805e+01       2.00952e-01       2.87717e-04       1.83815e+02
 13.000      2.22014e+02       1.58873e+01       8.04695e-02       2.84074e-04       1.81006e+02
 13.100      2.21390e+02       1.57977e+01      -5.61262e-02       2.80511e-04       1.78234e+02
 13.200      2.20737e+02       1.57117e+01      -2.05449e-01       2.77022e-04       1.75498e+02
 13.300      2.20061e+02       1.56294e+01      -3.64116e-01       2.73600e-04       1.72798e+02
 13.400      2.19364e+02       1.55510e+01      -5.28740e-01       2.70237e-04       1.70134e+02
 13.500      2.18653e+02       1.54764e+01      -6.95939e-01       2.66927e-04       1.67505e+02
 13.600      2.17930e+02       1.54057e+01      -8.62327e-01       2.63663e-04       1.64911e+02
 13.700      2.17201e+02       1.53391e+01      -1.02452e+00       2.60440e-04       1.62350e+02
 13.800      2.16471e+02       1.52766e+01      -1.17913e+00       2.57251e-04       1.59822e+02
 13.900      2.15743e+02       1.52183e+01      -1.32277e+00       2.54090e-04       1.57328e+02
 14.000      2.15021e+02       1.51642e+01      -1.45206e+00       2.50953e-04       1.54866e+02
 14.100      2.14312e+02       1.51144e+01      -1.56361e+00       2.47832e-04       1.52435e+02
 14.200      2.13618e+02       1.50691e+01      -1.65404e+00       2.44725e-04       1.50037e+02
 14.300      2.12944e+02       1.50279e+01      -1.72079e+00       2.41625e-04       1.47669e+02
 14.400      2.12291e+02       1.49899e+01      -1.76471e+00       2.38533e-04       1.45332e+02
 14.500      2.11659e+02       1.49535e+01      -1.78757e+00       2.35449e-04       1.43026e+02
 14.600      2.11049e+02       1.49174e+01      -1.79113e+00       2.32373e-04       1.40750e+02
 14.700      2.10461e+02       1.48800e+01      -1.77716e+00       2.29305e-04       1.38506e+02
 14.800      2.09896e+02       1.48400e+01      -1.74741e+00       2.26247e-04       1.36291e+02
 14.900      2.09354e+02       1.47960e+01      -1.70365e+00       2.23198e-04       1.34107e+02
 15.000      2.08836e+02       1.47464e+01      -1.64763e+00       2.20158e-04       1.31954e+02
 15.100      2.08341e+02       1.46900e+01      -1.58113e+00       2.17129e-04       1.29830e+02
 15.200      2.07872e+02       1.46253e+01      -1.50591e+00       2.14110e-04       1.27736e+02
 15.300      2.07427e+02       1.45507e+01      -1.42372e+00       2.11101e-04       1.25672e+02
 15.400      2.07008e+02       1.44650e+01      -1.33633e+00       2.08104e-04       1.23637e+02
 15.500      2.06615e+02       1.43667e+01      -1.24550e+00       2.05118e-04       1.21632e+02
 15.600      2.06248e+02       1.42544e+01      -1.15300e+00       2.02145e-04       1.19656e+02
 15.700      2.05908e+02       1.41266e+01      -1.06058e+00       1.99184e-04       1.17709e+02
 15.800      2.05595e+02       1.39819e+01      -9.70010e-01       1.96235e-04       1.15790e+02
 15.900      2.05310e+02       1.38189e+01      -8.83049e-01       1.93300e-04       1.13900e+02
 16.000      2.05053e+02       1.36361e+01      -8.01460e-01       1.90379e-04       1.12038e+02
 16.100      2.04825e+02       1.34322e+01      -7.27006e-01       1.87472e-04       1.10205e+02
 16.200      2.04626e+02       1.32057e+01      -6.61449e-01       1.84579e-04       1.08399e+02
 16.300      2.04456e+02       1.29552e+01      -6.06552e-01       1.81701e-04       1.06621e+02
 16.400      2.04317e+02       1.26793e+01      -5.64075e-01       1.78839e-04       1.04870e+02
 16.500      2.04208e+02       1.23764e+01      -5.35781e-01       1.75994e-04       1.03146e+02
 16.600      2.04130e+02       1.20453e+01      -5.23434e-01       1.73164e-04       1.01449e+02
 16.700      2.04083e+02       1.16844e+01      -5.28792e-01       1.70351e-04       9.97782e+01
 16.800      2.04068e+02       1.12935e+01      -5.52698e-01       1.67557e-04       9.81340e+01
 16.900      2.04083e+02       1.08745e+01      -5.93509e-01       1.64782e-04       9.65160e+01
 17.000      2.04126e+02       1.04303e+01      -6.49174e-01       1.62030e-04       9.49238e+01
 17.100      2.04195e+02       9.96357e+00      -7.17638e-01       1.59302e-04       9.33574e+01
 17.200      2.04289e+02       9.47689e+00      -7.96847e-01       1.56600e-04       9.18164e+01
 17.300      2.04406e+02       8.97298e+00      -8.84746e-01       1.53927e-04       9.03006e+01
 17.400      2.04545e+02       8.45450e+00      -9.79285e-01       1.51283e-04       8.88098e+01
 17.500      2.04703e+02       7.92412e+00      -1.07841e+00       1.48671e-04       8.73437e+01
 17.600      2.04879e+02       7.38452e+00      -1.18006e+00       1.46091e-04       8.59021e+01
 17.700      2.05072e+02       6.83837e+00      -1.28219e+00       1.43546e-04       8.44847e+01
 17.800      2.05279e+02       6.28835e+00      -1.38274e+00       1.41036e-04       8.30914e+01
 17.900      2.05499e+02       5.73712e+00      -1.47967e+00       1.38563e-04       8.17217e+01
 18.000      2.05730e+02       5.18735e+00      -1.57091e+00       1.36127e-04       8.03755e+01
 18.100      2.05971e+02       4.64172e+00      -1.65441e+00       1.33730e-04       7.90526e+01
 18.200      2.06219e+02       4.10290e+00      -1.72812e+00       1.31372e-04       7.77525e+01
 18.300      2.06474e+02       3.57357e+00      -1.78999e+00       1.29055e-04       7.64752e+01
 18.400      2.06733e+02       3.05639e+00      -1.83795e+00       1.26778e-04       7.52202e+01
 18.500      2.06994e+02       2.55404e+00      -1.86997e+00       1.24542e-04       7.39873e+01
 18.600      2.07257e+02       2.06918e+00      -1.88398e+00       1.22349e-04       7.27763e+01
 18.700      2.07518e+02       1.60450e+00      -1.87793e+00       1.20197e-04       7.15869e+01
 18.800      2.07778e+02       1.16267e+00      -1.84976e+00       1.18089e-04       7.04188e+01
 18.900      2.08033e+02       7.46179e-01      -1.79760e+00       1.16022e-04       6.92717e+01
 19.000      2.08284e+02       3.55397e-01      -1.72171e+00       1.13998e-04       6.81453e+01
 19.100      2.08530e+02      -1.08187e-02      -1.62386e+00       1.12016e-04       6.70391e+01
 19.200      2.08771e+02      -3.53641e-01      -1.50587e+00       1.10073e-04       6.59528e+01
 19.300      2.09008e+02      -6.74236e-01      -1.36956e+00       1.08170e-04       6.48859e+01
 19.400      2.09240e+02      -9.73789e-01      -1.21671e+00       1.06305e-04       6.38382e+01
 19.500      2.09467e+02      -1.25347e+00      -1.04916e+00       1.04478e-04       6.28091e+01
 19.600      2.09690e+02      -1.51444e+00      -8.68694e-01       1.02687e-04       6.17984e+01
 19.700      2.09909e+02      -1.75789e+00      -6.77134e-01       1.00933e-04       6.08056e+01
 19.800      2.10123e+02      -1.98497e+00      -4.76291e-01       9.92128e-05       5.98305e+01
 19.900      2.10333e+02      -2.19687e+00      -2.67965e-01       9.75271e-05       5.88727e+01
 20.000      2.10538e+02      -2.39476e+00      -5.39710e-02       9.58749e-05       5.79318e+01
 20.100      2.10739e+02      -2.57981e+00       1.63884e-01       9.42552e-05       5.70075e+01
 20.200      2.10936e+02      -2.75320e+00       3.83789e-01       9.26675e-05       5.60996e+01
 20.300      2.11128e+02      -2.91608e+00       6.03933e-01       9.11109e-05       5.52076e+01
