# Data Source: NASA GEOS5 Near-Real-Time
# Model Time = 2011-08-12 18:00:00
# Location = [  39.1026,  -84.5123 ]
# Fields = [ Z(km), T(K), U(m/s), V(m/s), R(g/cm3), P(mbar) ]
# Ground Height = 0.165
  0.000      3.00319e+02      -2.36906e+00       2.52948e-01       1.17940e-03       1.01655e+03
  0.100      2.99500e+02      -2.48930e+00       2.25440e-01       1.16916e-03       1.00496e+03
  0.200      2.98714e+02      -2.59370e+00       2.03846e-01       1.15887e-03       9.93514e+02
  0.300      2.97884e+02      -2.71892e+00       1.74479e-01       1.14886e-03       9.82192e+02
  0.400      2.96932e+02      -2.90095e+00       1.24084e-01       1.13940e-03       9.70994e+02
  0.500      2.95855e+02      -3.14136e+00       6.10802e-02       1.13050e-03       9.59909e+02
  0.600      2.94757e+02      -3.39187e+00       2.52564e-02       1.12172e-03       9.48918e+02
  0.700      2.93714e+02      -3.61243e+00       3.85637e-02       1.11276e-03       9.38010e+02
  0.800      2.92696e+02      -3.79907e+00       6.24383e-02       1.10375e-03       9.27188e+02
  0.900      2.91660e+02      -3.95178e+00       5.49805e-02       1.09485e-03       9.16458e+02
  1.000      2.90613e+02      -4.05029e+00       3.32491e-02       1.08604e-03       9.05820e+02
  1.100      2.89585e+02      -4.06566e+00       4.07659e-02       1.07720e-03       8.95274e+02
  1.200      2.88595e+02      -3.98394e+00       1.15179e-01       1.06827e-03       8.84816e+02
  1.300      2.87649e+02      -3.80835e+00       2.87279e-01       1.05922e-03       8.74441e+02
  1.400      2.86777e+02      -3.51897e+00       5.66938e-01       1.04993e-03       8.64145e+02
  1.500      2.86099e+02      -3.01406e+00       8.94137e-01       1.03999e-03       8.53938e+02
  1.600      2.85741e+02      -2.18763e+00       1.19669e+00       1.02896e-03       8.43832e+02
  1.700      2.85702e+02      -1.12160e+00       1.44074e+00       1.01692e-03       8.33834e+02
  1.800      2.85876e+02      -3.81357e-02       1.62109e+00       1.00425e-03       8.23955e+02
  1.900      2.86132e+02       8.92433e-01       1.74395e+00       9.91475e-04       8.14198e+02
  2.000      2.86258e+02       1.66077e+00       1.84686e+00       9.79306e-04       8.04557e+02
  2.100      2.86036e+02       2.28712e+00       1.97169e+00       9.68452e-04       7.95026e+02
  2.200      2.85474e+02       2.80006e+00       2.13187e+00       9.58848e-04       7.85596e+02
  2.300      2.84786e+02       3.23592e+00       2.31411e+00       9.49744e-04       7.76261e+02
  2.400      2.84166e+02       3.62741e+00       2.50433e+00       9.40482e-04       7.67016e+02
  2.500      2.83636e+02       3.98322e+00       2.68983e+00       9.30993e-04       7.57862e+02
  2.600      2.83155e+02       4.30313e+00       2.85847e+00       9.21425e-04       7.48801e+02
  2.700      2.82689e+02       4.58912e+00       3.00034e+00       9.11893e-04       7.39835e+02
  2.800      2.82225e+02       4.84928e+00       3.11166e+00       9.02440e-04       7.30963e+02
  2.900      2.81752e+02       5.09272e+00       3.18973e+00       8.93097e-04       7.22184e+02
  3.000      2.81270e+02       5.33039e+00       3.23559e+00       8.83866e-04       7.13496e+02
  3.100      2.80790e+02       5.57620e+00       3.25630e+00       8.74707e-04       7.04899e+02
  3.200      2.80328e+02       5.84393e+00       3.25955e+00       8.65577e-04       6.96392e+02
  3.300      2.79884e+02       6.13506e+00       3.25641e+00       8.56472e-04       6.87974e+02
  3.400      2.79446e+02       6.43612e+00       3.26200e+00       8.47426e-04       6.79645e+02
  3.500      2.79004e+02       6.73285e+00       3.29138e+00       8.38475e-04       6.71402e+02
  3.600      2.78549e+02       7.01540e+00       3.34967e+00       8.29641e-04       6.63246e+02
  3.700      2.78081e+02       7.27902e+00       3.43028e+00       8.20927e-04       6.55175e+02
  3.800      2.77596e+02       7.51916e+00       3.52602e+00       8.12335e-04       6.47189e+02
  3.900      2.77091e+02       7.72557e+00       3.63401e+00       8.03879e-04       6.39286e+02
  4.000      2.76553e+02       7.87961e+00       3.75760e+00       7.95587e-04       6.31464e+02
  4.100      2.75970e+02       7.96203e+00       3.90064e+00       7.87489e-04       6.23718e+02
  4.200      2.75336e+02       7.96129e+00       4.05481e+00       7.79595e-04       6.16048e+02
  4.300      2.74663e+02       7.88489e+00       4.18205e+00       7.71873e-04       6.08454e+02
  4.400      2.73963e+02       7.74321e+00       4.23977e+00       7.64284e-04       6.00937e+02
  4.500      2.73250e+02       7.54928e+00       4.19138e+00       7.56793e-04       5.93498e+02
  4.600      2.72532e+02       7.33169e+00       4.03525e+00       7.49371e-04       5.86134e+02
  4.700      2.71818e+02       7.12468e+00       3.78242e+00       7.41994e-04       5.78843e+02
  4.800      2.71114e+02       6.96175e+00       3.44403e+00       7.34640e-04       5.71621e+02
  4.900      2.70422e+02       6.85715e+00       3.03341e+00       7.27303e-04       5.64469e+02
  5.000      2.69740e+02       6.80421e+00       2.56626e+00       7.19995e-04       5.57387e+02
  5.100      2.69063e+02       6.79525e+00       2.05839e+00       7.12731e-04       5.50378e+02
  5.200      2.68387e+02       6.82726e+00       1.52455e+00       7.05522e-04       5.43442e+02
  5.300      2.67709e+02       6.91948e+00       9.74467e-01       6.98374e-04       5.36578e+02
  5.400      2.67028e+02       7.09765e+00       4.16395e-01       6.91290e-04       5.29785e+02
  5.500      2.66341e+02       7.38724e+00      -1.41331e-01       6.84274e-04       5.23059e+02
  5.600      2.65647e+02       7.78904e+00      -6.83213e-01       6.77330e-04       5.16400e+02
  5.700      2.64941e+02       8.26086e+00      -1.18127e+00       6.70464e-04       5.09808e+02
  5.800      2.64223e+02       8.75619e+00      -1.60625e+00       6.63684e-04       5.03284e+02
  5.900      2.63488e+02       9.22959e+00      -1.93004e+00       6.56993e-04       4.96826e+02
  6.000      2.62742e+02       9.66124e+00      -2.15087e+00       6.50384e-04       4.90435e+02
  6.100      2.61991e+02       1.00575e+01      -2.29385e+00       6.43835e-04       4.84109e+02
  6.200      2.61245e+02       1.04257e+01      -2.38531e+00       6.37321e-04       4.77846e+02
  6.300      2.60512e+02       1.07733e+01      -2.45054e+00       6.30822e-04       4.71646e+02
  6.400      2.59797e+02       1.11045e+01      -2.49592e+00       6.24325e-04       4.65507e+02
  6.500      2.59103e+02       1.14206e+01      -2.51077e+00       6.17825e-04       4.59431e+02
  6.600      2.58435e+02       1.17229e+01      -2.48386e+00       6.11318e-04       4.53420e+02
  6.700      2.57795e+02       1.20126e+01      -2.40431e+00       6.04797e-04       4.47473e+02
  6.800      2.57188e+02       1.22805e+01      -2.27415e+00       5.98256e-04       4.41591e+02
  6.900      2.56620e+02       1.25055e+01      -2.11099e+00       5.91684e-04       4.35775e+02
  7.000      2.56097e+02       1.26658e+01      -1.93342e+00       5.85068e-04       4.30024e+02
  7.100      2.55626e+02       1.27394e+01      -1.75999e+00       5.78398e-04       4.24340e+02
  7.200      2.55207e+02       1.27160e+01      -1.60725e+00       5.71676e-04       4.18721e+02
  7.300      2.54825e+02       1.26172e+01      -1.48602e+00       5.64940e-04       4.13167e+02
  7.400      2.54461e+02       1.24707e+01      -1.40611e+00       5.58232e-04       4.07678e+02
  7.500      2.54097e+02       1.23039e+01      -1.37734e+00       5.51594e-04       4.02254e+02
  7.600      2.53714e+02       1.21434e+01      -1.40900e+00       5.45062e-04       3.96892e+02
  7.700      2.53305e+02       1.20016e+01      -1.50197e+00       5.38655e-04       3.91594e+02
  7.800      2.52867e+02       1.18792e+01      -1.65031e+00       5.32372e-04       3.86358e+02
  7.900      2.52400e+02       1.17769e+01      -1.84792e+00       5.26215e-04       3.81183e+02
  8.000      2.51902e+02       1.16951e+01      -2.08866e+00       5.20183e-04       3.76071e+02
  8.100      2.51372e+02       1.16350e+01      -2.36680e+00       5.14277e-04       3.71018e+02
  8.200      2.50806e+02       1.16024e+01      -2.67954e+00       5.08501e-04       3.66025e+02
  8.300      2.50197e+02       1.16050e+01      -3.02545e+00       5.02862e-04       3.61088e+02
  8.400      2.49541e+02       1.16508e+01      -3.40309e+00       4.97365e-04       3.56204e+02
  8.500      2.48832e+02       1.17478e+01      -3.81105e+00       4.92016e-04       3.51372e+02
  8.600      2.48066e+02       1.19033e+01      -4.24741e+00       4.86819e-04       3.46590e+02
  8.700      2.47244e+02       1.21200e+01      -4.70566e+00       4.81766e-04       3.41856e+02
  8.800      2.46374e+02       1.23980e+01      -5.17665e+00       4.76840e-04       3.37170e+02
  8.900      2.45463e+02       1.27374e+01      -5.65121e+00       4.72026e-04       3.32532e+02
  9.000      2.44517e+02       1.31381e+01      -6.12017e+00       4.67309e-04       3.27941e+02
  9.100      2.43545e+02       1.36001e+01      -6.57442e+00       4.62673e-04       3.23396e+02
  9.200      2.42555e+02       1.41169e+01      -7.00897e+00       4.58098e-04       3.18897e+02
  9.300      2.41562e+02       1.46727e+01      -7.42484e+00       4.53559e-04       3.14445e+02
  9.400      2.40580e+02       1.52509e+01      -7.82352e+00       4.49028e-04       3.10038e+02
  9.500      2.39623e+02       1.58352e+01      -8.20652e+00       4.44480e-04       3.05676e+02
  9.600      2.38705e+02       1.64088e+01      -8.57533e+00       4.39888e-04       3.01360e+02
  9.700      2.37840e+02       1.69563e+01      -8.93181e+00       4.35230e-04       2.97089e+02
  9.800      2.37024e+02       1.74725e+01      -9.28184e+00       4.30516e-04       2.92862e+02
  9.900      2.36244e+02       1.79589e+01      -9.63376e+00       4.25771e-04       2.88681e+02
 10.000      2.35487e+02       1.84171e+01      -9.99597e+00       4.21020e-04       2.84545e+02
 10.100      2.34739e+02       1.88485e+01      -1.03768e+01       4.16290e-04       2.80455e+02
 10.200      2.33988e+02       1.92547e+01      -1.07848e+01       4.11604e-04       2.76411e+02
 10.300      2.33221e+02       1.96374e+01      -1.12272e+01       4.06983e-04       2.72412e+02
 10.400      2.32436e+02       2.00024e+01      -1.16997e+01       4.02432e-04       2.68459e+02
 10.500      2.31639e+02       2.03575e+01      -1.21898e+01       3.97938e-04       2.64551e+02
 10.600      2.30835e+02       2.07111e+01      -1.26850e+01       3.93491e-04       2.60687e+02
 10.700      2.30030e+02       2.10713e+01      -1.31726e+01       3.89081e-04       2.56866e+02
 10.800      2.29230e+02       2.14461e+01      -1.36402e+01       3.84698e-04       2.53089e+02
 10.900      2.28440e+02       2.18437e+01      -1.40751e+01       3.80333e-04       2.49354e+02
 11.000      2.27663e+02       2.22593e+01      -1.44642e+01       3.75980e-04       2.45662e+02
 11.100      2.26895e+02       2.26572e+01      -1.47931e+01       3.71645e-04       2.42011e+02
 11.200      2.26134e+02       2.29973e+01      -1.50473e+01       3.67336e-04       2.38403e+02
 11.300      2.25375e+02       2.32392e+01      -1.52123e+01       3.63059e-04       2.34836e+02
 11.400      2.24614e+02       2.33428e+01      -1.52734e+01       3.58820e-04       2.31310e+02
 11.500      2.23847e+02       2.32678e+01      -1.52162e+01       3.54625e-04       2.27826e+02
 11.600      2.23070e+02       2.29741e+01      -1.50261e+01       3.50482e-04       2.24382e+02
 11.700      2.22282e+02       2.24489e+01      -1.46970e+01       3.46391e-04       2.20980e+02
 11.800      2.21486e+02       2.17444e+01      -1.42427e+01       3.42346e-04       2.17618e+02
 11.900      2.20690e+02       2.09218e+01      -1.36800e+01       3.38337e-04       2.14296e+02
 12.000      2.19897e+02       2.00425e+01      -1.30256e+01       3.34356e-04       2.11014e+02
 12.100      2.19113e+02       1.91679e+01      -1.22960e+01       3.30396e-04       2.07771e+02
 12.200      2.18344e+02       1.83594e+01      -1.15081e+01       3.26448e-04       2.04568e+02
 12.300      2.17595e+02       1.76782e+01      -1.06785e+01       3.22505e-04       2.01403e+02
 12.400      2.16870e+02       1.71835e+01      -9.82403e+00       3.18560e-04       1.98278e+02
 12.500      2.16176e+02       1.68934e+01      -8.96328e+00       3.14608e-04       1.95190e+02
 12.600      2.15513e+02       1.67907e+01      -8.11653e+00       3.10645e-04       1.92141e+02
 12.700      2.14887e+02       1.68566e+01      -7.30412e+00       3.06670e-04       1.89131e+02
 12.800      2.14300e+02       1.70725e+01      -6.54633e+00       3.02678e-04       1.86160e+02
 12.900      2.13756e+02       1.74199e+01      -5.86351e+00       2.98668e-04       1.83227e+02
 13.000      2.13258e+02       1.78801e+01      -5.27594e+00       2.94637e-04       1.80333e+02
 13.100      2.12809e+02       1.84345e+01      -4.80396e+00       2.90583e-04       1.77477e+02
 13.200      2.12413e+02       1.90644e+01      -4.46786e+00       2.86504e-04       1.74660e+02
 13.300      2.12072e+02       1.97500e+01      -4.27996e+00       2.82401e-04       1.71882e+02
 13.400      2.11787e+02       2.04671e+01      -4.23023e+00       2.78275e-04       1.69143e+02
 13.500      2.11559e+02       2.11914e+01      -4.30479e+00       2.74130e-04       1.66445e+02
 13.600      2.11388e+02       2.18981e+01      -4.48976e+00       2.69972e-04       1.63788e+02
 13.700      2.11275e+02       2.25628e+01      -4.77125e+00       2.65802e-04       1.61172e+02
 13.800      2.11221e+02       2.31608e+01      -5.13538e+00       2.61626e-04       1.58599e+02
 13.900      2.11226e+02       2.36676e+01      -5.56826e+00       2.57446e-04       1.56069e+02
 14.000      2.11291e+02       2.40585e+01      -6.05602e+00       2.53266e-04       1.53582e+02
 14.100      2.11416e+02       2.43090e+01      -6.58476e+00       2.49089e-04       1.51138e+02
 14.200      2.11601e+02       2.43956e+01      -7.14064e+00       2.44920e-04       1.48739e+02
 14.300      2.11841e+02       2.43155e+01      -7.71075e+00       2.40768e-04       1.46383e+02
 14.400      2.12121e+02       2.40857e+01      -8.28298e+00       2.36646e-04       1.44068e+02
 14.500      2.12430e+02       2.37235e+01      -8.84529e+00       2.32570e-04       1.41792e+02
 14.600      2.12753e+02       2.32465e+01      -9.38562e+00       2.28550e-04       1.39553e+02
 14.700      2.13077e+02       2.26722e+01      -9.89191e+00       2.24599e-04       1.37349e+02
 14.800      2.13390e+02       2.20182e+01      -1.03521e+01       2.20727e-04       1.35180e+02
 14.900      2.13678e+02       2.13019e+01      -1.07542e+01       2.16944e-04       1.33042e+02
 15.000      2.13928e+02       2.05410e+01      -1.10860e+01       2.13259e-04       1.30935e+02
 15.100      2.14126e+02       1.97528e+01      -1.13356e+01       2.09681e-04       1.28858e+02
 15.200      2.14260e+02       1.89549e+01      -1.14909e+01       2.06216e-04       1.26808e+02
 15.300      2.14316e+02       1.81648e+01      -1.15398e+01       2.02873e-04       1.24784e+02
 15.400      2.14287e+02       1.73962e+01      -1.14756e+01       1.99652e-04       1.22787e+02
 15.500      2.14179e+02       1.66508e+01      -1.13072e+01       1.96546e-04       1.20816e+02
 15.600      2.14003e+02       1.59286e+01      -1.10461e+01       1.93543e-04       1.18872e+02
 15.700      2.13769e+02       1.52293e+01      -1.07039e+01       1.90633e-04       1.16957e+02
 15.800      2.13486e+02       1.45529e+01      -1.02923e+01       1.87807e-04       1.15070e+02
 15.900      2.13166e+02       1.38992e+01      -9.82281e+00       1.85056e-04       1.13214e+02
 16.000      2.12817e+02       1.32681e+01      -9.30711e+00       1.82370e-04       1.11389e+02
 16.100      2.12450e+02       1.26593e+01      -8.75679e+00       1.79742e-04       1.09594e+02
 16.200      2.12075e+02       1.20727e+01      -8.18344e+00       1.77164e-04       1.07832e+02
 16.300      2.11703e+02       1.15082e+01      -7.59871e+00       1.74628e-04       1.06102e+02
 16.400      2.11342e+02       1.09657e+01      -7.01416e+00       1.72127e-04       1.04404e+02
 16.500      2.11004e+02       1.04449e+01      -6.44143e+00       1.69654e-04       1.02739e+02
 16.600      2.10698e+02       9.94567e+00      -5.89212e+00       1.67203e-04       1.01108e+02
 16.700      2.10434e+02       9.46793e+00      -5.37777e+00       1.64768e-04       9.95109e+01
 16.800      2.10219e+02       9.01128e+00      -4.90503e+00       1.62344e-04       9.79467e+01
 16.900      2.10049e+02       8.57493e+00      -4.47236e+00       1.59934e-04       9.64145e+01
 17.000      2.09924e+02       8.15808e+00      -4.07750e+00       1.57536e-04       9.49126e+01
 17.100      2.09840e+02       7.75994e+00      -3.71818e+00       1.55154e-04       9.34399e+01
 17.200      2.09796e+02       7.37971e+00      -3.39211e+00       1.52787e-04       9.19949e+01
 17.300      2.09789e+02       7.01659e+00      -3.09704e+00       1.50436e-04       9.05766e+01
 17.400      2.09817e+02       6.66977e+00      -2.83068e+00       1.48102e-04       8.91835e+01
 17.500      2.09878e+02       6.33847e+00      -2.59076e+00       1.45787e-04       8.78147e+01
 17.600      2.09969e+02       6.02187e+00      -2.37501e+00       1.43490e-04       8.64689e+01
 17.700      2.10089e+02       5.71918e+00      -2.18114e+00       1.41213e-04       8.51453e+01
 17.800      2.10235e+02       5.42961e+00      -2.00690e+00       1.38956e-04       8.38427e+01
 17.900      2.10404e+02       5.15234e+00      -1.85000e+00       1.36721e-04       8.25603e+01
 18.000      2.10595e+02       4.88658e+00      -1.70816e+00       1.34507e-04       8.12971e+01
 18.100      2.10806e+02       4.63154e+00      -1.57912e+00       1.32315e-04       8.00522e+01
 18.200      2.11033e+02       4.38640e+00      -1.46060e+00       1.30146e-04       7.88248e+01
 18.300      2.11275e+02       4.15039e+00      -1.35034e+00       1.28000e-04       7.76142e+01
 18.400      2.11529e+02       3.92268e+00      -1.24604e+00       1.25879e-04       7.64195e+01
 18.500      2.11794e+02       3.70248e+00      -1.14544e+00       1.23781e-04       7.52402e+01
 18.600      2.12067e+02       3.48899e+00      -1.04627e+00       1.21708e-04       7.40753e+01
 18.700      2.12345e+02       3.28142e+00      -9.46245e-01       1.19660e-04       7.29245e+01
 18.800      2.12627e+02       3.07897e+00      -8.43101e-01       1.17637e-04       7.17869e+01
 18.900      2.12910e+02       2.88083e+00      -7.34558e-01       1.15640e-04       7.06621e+01
 19.000      2.13192e+02       2.68620e+00      -6.18381e-01       1.13669e-04       6.95495e+01
 19.100      2.13472e+02       2.49447e+00      -4.93725e-01       1.11723e-04       6.84489e+01
 19.200      2.13748e+02       2.30523e+00      -3.61525e-01       1.09805e-04       6.73610e+01
 19.300      2.14022e+02       2.11808e+00      -2.22833e-01       1.07915e-04       6.62862e+01
 19.400      2.14291e+02       1.93263e+00      -7.86939e-02       1.06054e-04       6.52248e+01
 19.500      2.14557e+02       1.74849e+00       6.98386e-02       1.04221e-04       6.41773e+01
 19.600      2.14818e+02       1.56526e+00       2.21714e-01       1.02419e-04       6.31440e+01
 19.700      2.15075e+02       1.38255e+00       3.75883e-01       1.00646e-04       6.21253e+01
 19.800      2.15326e+02       1.19997e+00       5.31292e-01       9.89043e-05       6.11215e+01
 19.900      2.15572e+02       1.01711e+00       6.86896e-01       9.71935e-05       6.01328e+01
 20.000      2.15812e+02       8.33604e-01       8.41642e-01       9.55141e-05       5.91595e+01
 20.100      2.16046e+02       6.49040e-01       9.94479e-01       9.38663e-05       5.82019e+01
 20.200      2.16273e+02       4.63029e-01       1.14436e+00       9.22504e-05       5.72600e+01
 20.300      2.16492e+02       2.75182e-01       1.29023e+00       9.06666e-05       5.63342e+01
