# Data Source: NASA GEOS5 Near-Real-Time
# Model Time = 2010-03-09 18:00:00
# Location = [  39.7393, -104.9900 ]
# Fields = [ Z(km), T(K), U(m/s), V(m/s), R(g/cm3), P(mbar) ]
# Ground Height = 1.589
  0.000      2.91341e+02       1.48623e+00      -7.55468e+00       1.19765e-03       1.00141e+03
  0.100      2.90682e+02       1.49179e+00      -7.56629e+00       1.18632e-03       9.89695e+02
  0.200      2.90030e+02       1.49876e+00      -7.57995e+00       1.17506e-03       9.78105e+02
  0.300      2.89388e+02       1.50855e+00      -7.59793e+00       1.16384e-03       9.66624e+02
  0.400      2.88754e+02       1.52087e+00      -7.62218e+00       1.15268e-03       9.55251e+02
  0.500      2.88118e+02       1.53429e+00      -7.65399e+00       1.14161e-03       9.43991e+02
  0.600      2.87481e+02       1.54403e+00      -7.68659e+00       1.13063e-03       9.32845e+02
  0.700      2.86854e+02       1.54231e+00      -7.70612e+00       1.11969e-03       9.21811e+02
  0.800      2.86238e+02       1.53073e+00      -7.72326e+00       1.10881e-03       9.10886e+02
  0.900      2.85608e+02       1.52740e+00      -7.79189e+00       1.09805e-03       9.00066e+02
  1.000      2.84949e+02       1.53663e+00      -7.93420e+00       1.08749e-03       8.89351e+02
  1.100      2.84284e+02       1.49982e+00      -8.02560e+00       1.07703e-03       8.78744e+02
  1.200      2.83642e+02       1.35046e+00      -7.92039e+00       1.06658e-03       8.68248e+02
  1.300      2.83024e+02       1.12462e+00      -7.67877e+00       1.05612e-03       8.57862e+02
  1.400      2.82415e+02       9.28212e-01      -7.50120e+00       1.04571e-03       8.47579e+02
  1.500      2.81787e+02       8.29383e-01      -7.50876e+00       1.03545e-03       8.37396e+02
  1.600      2.81101e+02       8.17242e-01      -7.65688e+00       1.02548e-03       8.27313e+02
  1.700      2.80319e+02       8.71276e-01      -7.88291e+00       1.01593e-03       8.17330e+02
  1.800      2.79460e+02       9.69940e-01      -8.13914e+00       1.00672e-03       8.07442e+02
  1.900      2.78568e+02       1.09125e+00      -8.38538e+00       9.97690e-04       7.97643e+02
  2.000      2.77678e+02       1.22158e+00      -8.60091e+00       9.88699e-04       7.87930e+02
  2.100      2.76803e+02       1.36399e+00      -8.80377e+00       9.79710e-04       7.78304e+02
  2.200      2.75950e+02       1.52353e+00      -9.01513e+00       9.70697e-04       7.68769e+02
  2.300      2.75112e+02       1.70569e+00      -9.23867e+00       9.61693e-04       7.59324e+02
  2.400      2.74268e+02       1.91627e+00      -9.46640e+00       9.52767e-04       7.49970e+02
  2.500      2.73403e+02       2.15897e+00      -9.68760e+00       9.43973e-04       7.40705e+02
  2.600      2.72516e+02       2.42910e+00      -9.88168e+00       9.35310e-04       7.31526e+02
  2.700      2.71609e+02       2.71999e+00      -1.00257e+01       9.26764e-04       7.22429e+02
  2.800      2.70685e+02       3.03347e+00      -1.01138e+01       9.18324e-04       7.13413e+02
  2.900      2.69744e+02       3.38636e+00      -1.01699e+01       9.09984e-04       7.04478e+02
  3.000      2.68789e+02       3.79600e+00      -1.02207e+01       9.01739e-04       6.95623e+02
  3.100      2.67825e+02       4.25520e+00      -1.02852e+01       8.93567e-04       6.86847e+02
  3.200      2.66865e+02       4.73194e+00      -1.03743e+01       8.85429e-04       6.78152e+02
  3.300      2.65919e+02       5.19252e+00      -1.04958e+01       8.77288e-04       6.69537e+02
  3.400      2.64998e+02       5.59524e+00      -1.06209e+01       8.69117e-04       6.61001e+02
  3.500      2.64106e+02       5.89281e+00      -1.06953e+01       8.60895e-04       6.52545e+02
  3.600      2.63252e+02       6.04140e+00      -1.06679e+01       8.52604e-04       6.44170e+02
  3.700      2.62445e+02       6.03430e+00      -1.05246e+01       8.44214e-04       6.35876e+02
  3.800      2.61698e+02       5.88691e+00      -1.02737e+01       8.35689e-04       6.27663e+02
  3.900      2.61022e+02       5.61719e+00      -9.92272e+00       8.27000e-04       6.19533e+02
  4.000      2.60417e+02       5.26909e+00      -9.46727e+00       8.18155e-04       6.11487e+02
  4.100      2.59876e+02       4.90303e+00      -8.89559e+00       8.09188e-04       6.03528e+02
  4.200      2.59390e+02       4.57830e+00      -8.19799e+00       8.00132e-04       5.95658e+02
  4.300      2.58949e+02       4.32905e+00      -7.40484e+00       7.91026e-04       5.87878e+02
  4.400      2.58538e+02       4.16760e+00      -6.58144e+00       7.81918e-04       5.80187e+02
  4.500      2.58145e+02       4.10517e+00      -5.79405e+00       7.72852e-04       5.72588e+02
  4.600      2.57756e+02       4.13090e+00      -5.09682e+00       7.63867e-04       5.65077e+02
  4.700      2.57358e+02       4.19830e+00      -4.52443e+00       7.54995e-04       5.57654e+02
  4.800      2.56941e+02       4.25765e+00      -4.10977e+00       7.46267e-04       5.50313e+02
  4.900      2.56495e+02       4.27460e+00      -3.87129e+00       7.37705e-04       5.43054e+02
  5.000      2.56020e+02       4.28485e+00      -3.76182e+00       7.29305e-04       5.35876e+02
  5.100      2.55521e+02       4.34396e+00      -3.71549e+00       7.21053e-04       5.28780e+02
  5.200      2.55002e+02       4.50590e+00      -3.66728e+00       7.12938e-04       5.21767e+02
  5.300      2.54461e+02       4.78016e+00      -3.57565e+00       7.04961e-04       5.14835e+02
  5.400      2.53890e+02       5.12721e+00      -3.42491e+00       6.97139e-04       5.07981e+02
  5.500      2.53281e+02       5.50495e+00      -3.20070e+00       6.89489e-04       5.01201e+02
  5.600      2.52627e+02       5.87384e+00      -2.89297e+00       6.82023e-04       4.94493e+02
  5.700      2.51930e+02       6.21176e+00      -2.52137e+00       6.74729e-04       4.87855e+02
  5.800      2.51198e+02       6.50395e+00      -2.11806e+00       6.67585e-04       4.81287e+02
  5.900      2.50438e+02       6.73567e+00      -1.71526e+00       6.60569e-04       4.74789e+02
  6.000      2.49658e+02       6.89625e+00      -1.34127e+00       6.53660e-04       4.68359e+02
  6.100      2.48865e+02       6.98975e+00      -1.01024e+00       6.46837e-04       4.61998e+02
  6.200      2.48066e+02       7.02356e+00      -7.33108e-01       6.40080e-04       4.55704e+02
  6.300      2.47269e+02       7.00508e+00      -5.20802e-01       6.33369e-04       4.49478e+02
  6.400      2.46480e+02       6.94310e+00      -3.78918e-01       6.26689e-04       4.43319e+02
  6.500      2.45701e+02       6.85068e+00      -2.96431e-01       6.20034e-04       4.37225e+02
  6.600      2.44932e+02       6.74175e+00      -2.59089e-01       6.13405e-04       4.31196e+02
  6.700      2.44174e+02       6.63023e+00      -2.52640e-01       6.06799e-04       4.25232e+02
  6.800      2.43426e+02       6.53097e+00      -2.63099e-01       6.00216e-04       4.19330e+02
  6.900      2.42684e+02       6.46317e+00      -2.77663e-01       5.93669e-04       4.13493e+02
  7.000      2.41943e+02       6.44721e+00      -2.83861e-01       5.87172e-04       4.07718e+02
  7.100      2.41196e+02       6.50348e+00      -2.69224e-01       5.80739e-04       4.02007e+02
  7.200      2.40440e+02       6.64968e+00      -2.21930e-01       5.74382e-04       3.96359e+02
  7.300      2.39673e+02       6.86946e+00      -1.38298e-01       5.68099e-04       3.90773e+02
  7.400      2.38900e+02       7.12334e+00      -2.01918e-02       5.61880e-04       3.85249e+02
  7.500      2.38127e+02       7.37136e+00       1.30415e-01       5.55712e-04       3.79787e+02
  7.600      2.37356e+02       7.57358e+00       3.11547e-01       5.49586e-04       3.74385e+02
  7.700      2.36591e+02       7.69940e+00       5.18507e-01       5.43497e-04       3.69044e+02
  7.800      2.35826e+02       7.74477e+00       7.38842e-01       5.37455e-04       3.63761e+02
  7.900      2.35056e+02       7.71038e+00       9.58724e-01       5.31473e-04       3.58537e+02
  8.000      2.34273e+02       7.59689e+00       1.16433e+00       5.25564e-04       3.53371e+02
  8.100      2.33473e+02       7.40510e+00       1.34191e+00       5.19740e-04       3.48261e+02
  8.200      2.32654e+02       7.14320e+00       1.48266e+00       5.14002e-04       3.43208e+02
  8.300      2.31822e+02       6.83058e+00       1.58523e+00       5.08335e-04       3.38211e+02
  8.400      2.30985e+02       6.48759e+00       1.64888e+00       5.02723e-04       3.33269e+02
  8.500      2.30150e+02       6.13453e+00       1.67290e+00       4.97151e-04       3.28383e+02
  8.600      2.29322e+02       5.79166e+00       1.65663e+00       4.91604e-04       3.23551e+02
  8.700      2.28507e+02       5.47308e+00       1.60546e+00       4.86074e-04       3.18775e+02
  8.800      2.27702e+02       5.18251e+00       1.53496e+00       4.80565e-04       3.14052e+02
  8.900      2.26905e+02       4.92265e+00       1.46171e+00       4.75084e-04       3.09383e+02
  9.000      2.26114e+02       4.69623e+00       1.40226e+00       4.69634e-04       3.04768e+02
  9.100      2.25326e+02       4.50595e+00       1.37318e+00       4.64221e-04       3.00205e+02
  9.200      2.24541e+02       4.35371e+00       1.38847e+00       4.58847e-04       2.95696e+02
  9.300      2.23759e+02       4.23763e+00       1.45047e+00       4.53509e-04       2.91238e+02
  9.400      2.22985e+02       4.15477e+00       1.55815e+00       4.48200e-04       2.86833e+02
  9.500      2.22222e+02       4.10219e+00       1.71048e+00       4.42913e-04       2.82480e+02
  9.600      2.21473e+02       4.07692e+00       1.90645e+00       4.37643e-04       2.78178e+02
  9.700      2.20743e+02       4.07608e+00       2.14499e+00       4.32384e-04       2.73929e+02
  9.800      2.20032e+02       4.10114e+00       2.42308e+00       4.27133e-04       2.69731e+02
  9.900      2.19339e+02       4.16202e+00       2.73376e+00       4.21894e-04       2.65584e+02
 10.000      2.18665e+02       4.26963e+00       3.06969e+00       4.16669e-04       2.61488e+02
 10.100      2.18006e+02       4.43485e+00       3.42349e+00       4.11463e-04       2.57443e+02
 10.200      2.17362e+02       4.66858e+00       3.78778e+00       4.06278e-04       2.53449e+02
 10.300      2.16733e+02       4.98171e+00       4.15521e+00       4.01118e-04       2.49505e+02
 10.400      2.16119e+02       5.38007e+00       4.51860e+00       3.95979e-04       2.45611e+02
 10.500      2.15537e+02       5.85562e+00       4.87127e+00       3.90836e-04       2.41768e+02
 10.600      2.15003e+02       6.39794e+00       5.20665e+00       3.85663e-04       2.37977e+02
 10.700      2.14534e+02       6.99661e+00       5.51815e+00       3.80433e-04       2.34237e+02
 10.800      2.14146e+02       7.64122e+00       5.79920e+00       3.75122e-04       2.30549e+02
 10.900      2.13856e+02       8.32134e+00       6.04322e+00       3.69708e-04       2.26914e+02
 11.000      2.13680e+02       9.02639e+00       6.24393e+00       3.64171e-04       2.23331e+02
 11.100      2.13620e+02       9.74130e+00       6.40313e+00       3.58515e-04       2.19802e+02
 11.200      2.13666e+02       1.04461e+01       6.53137e+00       3.52771e-04       2.16327e+02
 11.300      2.13805e+02       1.11204e+01       6.63968e+00       3.46970e-04       2.12908e+02
 11.400      2.14024e+02       1.17442e+01       6.73908e+00       3.41141e-04       2.09545e+02
 11.500      2.14310e+02       1.22971e+01       6.84057e+00       3.35311e-04       2.06240e+02
 11.600      2.14651e+02       1.27590e+01       6.95518e+00       3.29506e-04       2.02992e+02
 11.700      2.15035e+02       1.31095e+01       7.09391e+00       3.23750e-04       1.99802e+02
 11.800      2.15450e+02       1.33386e+01       7.26355e+00       3.18064e-04       1.96672e+02
 11.900      2.15884e+02       1.34695e+01       7.45678e+00       3.12463e-04       1.93598e+02
 12.000      2.16328e+02       1.35323e+01       7.66340e+00       3.06959e-04       1.90579e+02
 12.100      2.16772e+02       1.35575e+01       7.87319e+00       3.01564e-04       1.87614e+02
 12.200      2.17206e+02       1.35750e+01       8.07593e+00       2.96288e-04       1.84700e+02
 12.300      2.17619e+02       1.36152e+01       8.26140e+00       2.91140e-04       1.81836e+02
 12.400      2.18001e+02       1.37082e+01       8.41938e+00       2.86129e-04       1.79020e+02
 12.500      2.18343e+02       1.38843e+01       8.53967e+00       2.81263e-04       1.76251e+02
 12.600      2.18633e+02       1.41720e+01       8.61255e+00       2.76548e-04       1.73528e+02
 12.700      2.18872e+02       1.45699e+01       8.63774e+00       2.71981e-04       1.70848e+02
 12.800      2.19065e+02       1.50494e+01       8.62349e+00       2.67549e-04       1.68213e+02
 12.900      2.19218e+02       1.55811e+01       8.57830e+00       2.63241e-04       1.65620e+02
 13.000      2.19339e+02       1.61356e+01       8.51069e+00       2.59044e-04       1.63069e+02
 13.100      2.19432e+02       1.66834e+01       8.42917e+00       2.54950e-04       1.60560e+02
 13.200      2.19505e+02       1.71949e+01       8.34227e+00       2.50947e-04       1.58091e+02
 13.300      2.19563e+02       1.76409e+01       8.25848e+00       2.47026e-04       1.55663e+02
 13.400      2.19614e+02       1.79918e+01       8.18635e+00       2.43179e-04       1.53274e+02
 13.500      2.19663e+02       1.82182e+01       8.13437e+00       2.39398e-04       1.50924e+02
 13.600      2.19717e+02       1.82925e+01       8.11058e+00       2.35674e-04       1.48613e+02
 13.700      2.19777e+02       1.82149e+01       8.11591e+00       2.32005e-04       1.46339e+02
 13.800      2.19838e+02       1.80068e+01       8.14579e+00       2.28392e-04       1.44100e+02
 13.900      2.19898e+02       1.76902e+01       8.19556e+00       2.24837e-04       1.41896e+02
 14.000      2.19953e+02       1.72872e+01       8.26053e+00       2.21342e-04       1.39725e+02
 14.100      2.20000e+02       1.68197e+01       8.33602e+00       2.17906e-04       1.37586e+02
 14.200      2.20036e+02       1.63097e+01       8.41734e+00       2.14530e-04       1.35477e+02
 14.300      2.20058e+02       1.57793e+01       8.49982e+00       2.11217e-04       1.33397e+02
 14.400      2.20061e+02       1.52503e+01       8.57878e+00       2.07966e-04       1.31346e+02
 14.500      2.20043e+02       1.47448e+01       8.64952e+00       2.04777e-04       1.29322e+02
 14.600      2.20000e+02       1.42849e+01       8.70738e+00       2.01653e-04       1.27323e+02
 14.700      2.19929e+02       1.38924e+01       8.74767e+00       1.98592e-04       1.25350e+02
 14.800      2.19828e+02       1.35866e+01       8.76634e+00       1.95595e-04       1.23402e+02
 14.900      2.19697e+02       1.33669e+01       8.76380e+00       1.92661e-04       1.21478e+02
 15.000      2.19540e+02       1.32245e+01       8.74232e+00       1.89786e-04       1.19580e+02
 15.100      2.19361e+02       1.31506e+01       8.70419e+00       1.86968e-04       1.17709e+02
 15.200      2.19162e+02       1.31364e+01       8.65168e+00       1.84205e-04       1.15865e+02
 15.300      2.18948e+02       1.31730e+01       8.58707e+00       1.81495e-04       1.14048e+02
 15.400      2.18722e+02       1.32516e+01       8.51265e+00       1.78836e-04       1.12261e+02
 15.500      2.18486e+02       1.33634e+01       8.43069e+00       1.76224e-04       1.10502e+02
 15.600      2.18245e+02       1.34995e+01       8.34348e+00       1.73659e-04       1.08774e+02
 15.700      2.18001e+02       1.36511e+01       8.25329e+00       1.71138e-04       1.07075e+02
 15.800      2.17759e+02       1.38093e+01       8.16241e+00       1.68660e-04       1.05407e+02
 15.900      2.17521e+02       1.39654e+01       8.07312e+00       1.66222e-04       1.03770e+02
 16.000      2.17290e+02       1.41104e+01       7.98769e+00       1.63823e-04       1.02164e+02
 16.100      2.17071e+02       1.42356e+01       7.90841e+00       1.61461e-04       1.00589e+02
 16.200      2.16866e+02       1.43326e+01       7.83744e+00       1.59135e-04       9.90463e+01
 16.300      2.16676e+02       1.43984e+01       7.77523e+00       1.56842e-04       9.75343e+01
 16.400      2.16501e+02       1.44346e+01       7.72099e+00       1.54583e-04       9.60516e+01
 16.500      2.16340e+02       1.44423e+01       7.67392e+00       1.52356e-04       9.45970e+01
 16.600      2.16192e+02       1.44232e+01       7.63320e+00       1.50159e-04       9.31690e+01
 16.700      2.16056e+02       1.43785e+01       7.59801e+00       1.47991e-04       9.17665e+01
 16.800      2.15931e+02       1.43097e+01       7.56755e+00       1.45852e-04       9.03881e+01
 16.900      2.15818e+02       1.42182e+01       7.54100e+00       1.43741e-04       8.90329e+01
 17.000      2.15714e+02       1.41054e+01       7.51755e+00       1.41657e-04       8.76995e+01
 17.100      2.15620e+02       1.39727e+01       7.49638e+00       1.39598e-04       8.63870e+01
 17.200      2.15534e+02       1.38215e+01       7.47669e+00       1.37564e-04       8.50944e+01
 17.300      2.15455e+02       1.36533e+01       7.45765e+00       1.35554e-04       8.38208e+01
 17.400      2.15384e+02       1.34693e+01       7.43845e+00       1.33567e-04       8.25651e+01
 17.500      2.15319e+02       1.32712e+01       7.41829e+00       1.31604e-04       8.13265e+01
 17.600      2.15260e+02       1.30601e+01       7.39635e+00       1.29661e-04       8.01043e+01
 17.700      2.15205e+02       1.28377e+01       7.37181e+00       1.27741e-04       7.88975e+01
 17.800      2.15154e+02       1.26052e+01       7.34387e+00       1.25840e-04       7.77054e+01
 17.900      2.15106e+02       1.23641e+01       7.31170e+00       1.23960e-04       7.65274e+01
 18.000      2.15061e+02       1.21157e+01       7.27450e+00       1.22099e-04       7.53626e+01
 18.100      2.15018e+02       1.18616e+01       7.23146e+00       1.20257e-04       7.42105e+01
 18.200      2.14975e+02       1.16030e+01       7.18175e+00       1.18433e-04       7.30705e+01
 18.300      2.14933e+02       1.13415e+01       7.12457e+00       1.16627e-04       7.19420e+01
 18.400      2.14890e+02       1.10784e+01       7.05911e+00       1.14838e-04       7.08245e+01
 18.500      2.14845e+02       1.08151e+01       6.98455e+00       1.13066e-04       6.97173e+01
 18.600      2.14799e+02       1.05528e+01       6.90049e+00       1.11311e-04       6.86205e+01
 18.700      2.14751e+02       1.02918e+01       6.80735e+00       1.09574e-04       6.75344e+01
 18.800      2.14700e+02       1.00326e+01       6.70561e+00       1.07856e-04       6.64598e+01
 18.900      2.14647e+02       9.77554e+00       6.59575e+00       1.06158e-04       6.53971e+01
 19.000      2.14592e+02       9.52111e+00       6.47827e+00       1.04480e-04       6.43468e+01
 19.100      2.14534e+02       9.26966e+00       6.35365e+00       1.02823e-04       6.33095e+01
 19.200      2.14474e+02       9.02161e+00       6.22238e+00       1.01188e-04       6.22854e+01
 19.300      2.14411e+02       8.77736e+00       6.08495e+00       9.95761e-05       6.12751e+01
 19.400      2.14345e+02       8.53730e+00       5.94185e+00       9.79872e-05       6.02787e+01
 19.500      2.14276e+02       8.30185e+00       5.79357e+00       9.64221e-05       5.92968e+01
 19.600      2.14204e+02       8.07139e+00       5.64059e+00       9.48812e-05       5.83296e+01
 19.700      2.14129e+02       7.84634e+00       5.48341e+00       9.33650e-05       5.73774e+01
 19.800      2.14050e+02       7.62710e+00       5.32251e+00       9.18740e-05       5.64403e+01
 19.900      2.13968e+02       7.41407e+00       5.15838e+00       9.04084e-05       5.55187e+01
 20.000      2.13882e+02       7.20765e+00       4.99150e+00       8.89686e-05       5.46126e+01
 20.100      2.13793e+02       7.00825e+00       4.82238e+00       8.75548e-05       5.37223e+01
 20.200      2.13700e+02       6.81626e+00       4.65149e+00       8.61672e-05       5.28479e+01
 20.300      2.13602e+02       6.63210e+00       4.47933e+00       8.48062e-05       5.19895e+01
