# Data Source: NASA GEOS5 Near-Real-Time
# Model Time = 2010-12-04 18:00:00
# Location = [  39.7393, -104.9900 ]
# Fields = [ Z(km), T(K), U(m/s), V(m/s), R(g/cm3), P(mbar) ]
# Ground Height = 1.589
  0.000      2.88230e+02       9.59167e-01       2.99047e+00       1.24031e-03       1.02601e+03
  0.100      2.87587e+02       9.39377e-01       3.00453e+00       1.22832e-03       1.01383e+03
  0.200      2.86935e+02       9.17607e-01       3.00201e+00       1.21652e-03       1.00181e+03
  0.300      2.86282e+02       8.95577e-01       2.99732e+00       1.20485e-03       9.89939e+02
  0.400      2.85635e+02       8.75004e-01       3.00482e+00       1.19325e-03       9.78191e+02
  0.500      2.85002e+02       8.57457e-01       3.03565e+00       1.18167e-03       9.66550e+02
  0.600      2.84378e+02       8.43089e-01       3.06999e+00       1.17013e-03       9.55018e+02
  0.700      2.83752e+02       8.31340e-01       3.07297e+00       1.15870e-03       9.43607e+02
  0.800      2.83100e+02       8.22758e-01       3.04251e+00       1.14747e-03       9.32314e+02
  0.900      2.82389e+02       8.18746e-01       3.00436e+00       1.13656e-03       9.21129e+02
  1.000      2.81645e+02       8.15811e-01       2.97469e+00       1.12585e-03       9.10046e+02
  1.100      2.80978e+02       8.03095e-01       2.95392e+00       1.11491e-03       8.99070e+02
  1.200      2.80446e+02       7.79349e-01       2.94677e+00       1.10353e-03       8.88206e+02
  1.300      2.79911e+02       7.75021e-01       2.97533e+00       1.09225e-03       8.77456e+02
  1.400      2.79224e+02       8.17789e-01       3.05841e+00       1.08167e-03       8.66823e+02
  1.500      2.78429e+02       8.62816e-01       3.16134e+00       1.07159e-03       8.56295e+02
  1.600      2.77660e+02       8.31396e-01       3.22485e+00       1.06146e-03       8.45859e+02
  1.700      2.76943e+02       7.02445e-01       3.25026e+00       1.05118e-03       8.35511e+02
  1.800      2.76159e+02       5.30469e-01       3.31822e+00       1.04124e-03       8.25261e+02
  1.900      2.75210e+02       3.73738e-01       3.49048e+00       1.03198e-03       8.15116e+02
  2.000      2.74146e+02       2.84774e-01       3.72411e+00       1.02322e-03       8.05069e+02
  2.100      2.73052e+02       3.13998e-01       3.94867e+00       1.01461e-03       7.95109e+02
  2.200      2.72014e+02       4.98733e-01       4.11159e+00       1.00583e-03       7.85233e+02
  2.300      2.71112e+02       8.62929e-01       4.17856e+00       9.96595e-04       7.75441e+02
  2.400      2.70422e+02       1.40933e+00       4.11698e+00       9.86635e-04       7.65738e+02
  2.500      2.69993e+02       2.04621e+00       3.89843e+00       9.75810e-04       7.56135e+02
  2.600      2.69867e+02       2.65605e+00       3.49646e+00       9.64018e-04       7.46650e+02
  2.700      2.70004e+02       3.18425e+00       2.92806e+00       9.51447e-04       7.37288e+02
  2.800      2.70249e+02       3.66838e+00       2.27376e+00       9.38671e-04       7.28048e+02
  2.900      2.70444e+02       4.15258e+00       1.61525e+00       9.26243e-04       7.18926e+02
  3.000      2.70517e+02       4.67219e+00       9.89511e-01       9.14394e-04       7.09921e+02
  3.100      2.70453e+02       5.25689e+00       4.04677e-01       9.03160e-04       7.01032e+02
  3.200      2.70240e+02       5.93314e+00      -1.33610e-01       8.92559e-04       6.92258e+02
  3.300      2.69890e+02       6.70963e+00      -6.31202e-01       8.82524e-04       6.83589e+02
  3.400      2.69424e+02       7.58873e+00      -1.09802e+00       8.72965e-04       6.75016e+02
  3.500      2.68866e+02       8.57117e+00      -1.54416e+00       8.63779e-04       6.66531e+02
  3.600      2.68262e+02       9.65099e+00      -1.98037e+00       8.54814e-04       6.58132e+02
  3.700      2.67663e+02       1.08206e+01      -2.41757e+00       8.45906e-04       6.49818e+02
  3.800      2.67110e+02       1.20662e+01      -2.86217e+00       8.36926e-04       6.41591e+02
  3.900      2.66611e+02       1.33510e+01      -3.30360e+00       8.27855e-04       6.33454e+02
  4.000      2.66169e+02       1.46332e+01      -3.72734e+00       8.18699e-04       6.25408e+02
  4.100      2.65779e+02       1.58752e+01      -4.11928e+00       8.09475e-04       6.17455e+02
  4.200      2.65414e+02       1.70616e+01      -4.46714e+00       8.00266e-04       6.09594e+02
  4.300      2.65044e+02       1.81834e+01      -4.75919e+00       7.91167e-04       6.01822e+02
  4.400      2.64638e+02       1.92332e+01      -4.98524e+00       7.82260e-04       5.94135e+02
  4.500      2.64193e+02       2.02178e+01      -5.14770e+00       7.73550e-04       5.86533e+02
  4.600      2.63722e+02       2.11511e+01      -5.25524e+00       7.65000e-04       5.79015e+02
  4.700      2.63235e+02       2.20469e+01      -5.31648e+00       7.56576e-04       5.71582e+02
  4.800      2.62743e+02       2.29187e+01      -5.33776e+00       7.48245e-04       5.64232e+02
  4.900      2.62258e+02       2.37799e+01      -5.32285e+00       7.39973e-04       5.56964e+02
  5.000      2.61792e+02       2.46437e+01      -5.27539e+00       7.31726e-04       5.49777e+02
  5.100      2.61351e+02       2.55197e+01      -5.19997e+00       7.23484e-04       5.42668e+02
  5.200      2.60930e+02       2.64045e+01      -5.10450e+00       7.15264e-04       5.35639e+02
  5.300      2.60521e+02       2.72917e+01      -4.99772e+00       7.07093e-04       5.28689e+02
  5.400      2.60114e+02       2.81747e+01      -4.88833e+00       6.98994e-04       5.21818e+02
  5.500      2.59702e+02       2.90411e+01      -4.78518e+00       6.90989e-04       5.15026e+02
  5.600      2.59278e+02       2.98725e+01      -4.69729e+00       6.83096e-04       5.08312e+02
  5.700      2.58835e+02       3.06502e+01      -4.63366e+00       6.75332e-04       5.01675e+02
  5.800      2.58366e+02       3.13559e+01      -4.60225e+00       6.67711e-04       4.95114e+02
  5.900      2.57867e+02       3.19762e+01      -4.60155e+00       6.60240e-04       4.88628e+02
  6.000      2.57335e+02       3.25001e+01      -4.62514e+00       6.52919e-04       4.82214e+02
  6.100      2.56769e+02       3.29166e+01      -4.66657e+00       6.45750e-04       4.75871e+02
  6.200      2.56166e+02       3.32181e+01      -4.71952e+00       6.38733e-04       4.69595e+02
  6.300      2.55529e+02       3.34179e+01      -4.77867e+00       6.31861e-04       4.63386e+02
  6.400      2.54860e+02       3.35369e+01      -4.83904e+00       6.25122e-04       4.57244e+02
  6.500      2.54161e+02       3.35963e+01      -4.89564e+00       6.18508e-04       4.51166e+02
  6.600      2.53436e+02       3.36165e+01      -4.94373e+00       6.12009e-04       4.45151e+02
  6.700      2.52691e+02       3.36160e+01      -4.98009e+00       6.05608e-04       4.39201e+02
  6.800      2.51933e+02       3.36118e+01      -5.00223e+00       5.99286e-04       4.33313e+02
  6.900      2.51169e+02       3.36211e+01      -5.00763e+00       5.93027e-04       4.27487e+02
  7.000      2.50407e+02       3.36605e+01      -4.99389e+00       5.86812e-04       4.21723e+02
  7.100      2.49647e+02       3.37364e+01      -4.96048e+00       5.80639e-04       4.16020e+02
  7.200      2.48886e+02       3.38466e+01      -4.90839e+00       5.74512e-04       4.10377e+02
  7.300      2.48123e+02       3.39890e+01      -4.83866e+00       5.68440e-04       4.04793e+02
  7.400      2.47352e+02       3.41611e+01      -4.75235e+00       5.62426e-04       3.99267e+02
  7.500      2.46573e+02       3.43597e+01      -4.65129e+00       5.56477e-04       3.93799e+02
  7.600      2.45785e+02       3.45792e+01      -4.53945e+00       5.50591e-04       3.88389e+02
  7.700      2.44989e+02       3.48134e+01      -4.42114e+00       5.44767e-04       3.83036e+02
  7.800      2.44186e+02       3.50562e+01      -4.30067e+00       5.39003e-04       3.77741e+02
  7.900      2.43375e+02       3.53017e+01      -4.18242e+00       5.33299e-04       3.72502e+02
  8.000      2.42557e+02       3.55481e+01      -4.07215e+00       5.27652e-04       3.67319e+02
  8.100      2.41734e+02       3.57979e+01      -3.97710e+00       5.22060e-04       3.62192e+02
  8.200      2.40906e+02       3.60537e+01      -3.90458e+00       5.16518e-04       3.57120e+02
  8.300      2.40074e+02       3.63184e+01      -3.86190e+00       5.11024e-04       3.52101e+02
  8.400      2.39239e+02       3.65944e+01      -3.85603e+00       5.05575e-04       3.47135e+02
  8.500      2.38400e+02       3.68787e+01      -3.88870e+00       5.00170e-04       3.42221e+02
  8.600      2.37559e+02       3.71640e+01      -3.95729e+00       4.94811e-04       3.37359e+02
  8.700      2.36713e+02       3.74429e+01      -4.05909e+00       4.89499e-04       3.32549e+02
  8.800      2.35862e+02       3.77080e+01      -4.19137e+00       4.84236e-04       3.27790e+02
  8.900      2.35005e+02       3.79520e+01      -4.35136e+00       4.79021e-04       3.23083e+02
  9.000      2.34144e+02       3.81726e+01      -4.53435e+00       4.73855e-04       3.18427e+02
  9.100      2.33280e+02       3.83737e+01      -4.73321e+00       4.68731e-04       3.13822e+02
  9.200      2.32416e+02       3.85596e+01      -4.94062e+00       4.63644e-04       3.09267e+02
  9.300      2.31555e+02       3.87348e+01      -5.14929e+00       4.58590e-04       3.04761e+02
  9.400      2.30698e+02       3.89036e+01      -5.35192e+00       4.53562e-04       3.00305e+02
  9.500      2.29849e+02       3.90711e+01      -5.54308e+00       4.48557e-04       2.95898e+02
  9.600      2.29011e+02       3.92458e+01      -5.72666e+00       4.43567e-04       2.91540e+02
  9.700      2.28191e+02       3.94377e+01      -5.90939e+00       4.38583e-04       2.87231e+02
  9.800      2.27391e+02       3.96564e+01      -6.09799e+00       4.33597e-04       2.82971e+02
  9.900      2.26618e+02       3.99118e+01      -6.29920e+00       4.28602e-04       2.78761e+02
 10.000      2.25877e+02       4.02135e+01      -6.51975e+00       4.23591e-04       2.74600e+02
 10.100      2.25168e+02       4.05695e+01      -6.75999e+00       4.18562e-04       2.70488e+02
 10.200      2.24487e+02       4.09820e+01      -7.00112e+00       4.13527e-04       2.66426e+02
 10.300      2.23825e+02       4.14523e+01      -7.22079e+00       4.08502e-04       2.62413e+02
 10.400      2.23176e+02       4.19816e+01      -7.39664e+00       4.03500e-04       2.58448e+02
 10.500      2.22531e+02       4.25711e+01      -7.50632e+00       3.98537e-04       2.54531e+02
 10.600      2.21884e+02       4.32221e+01      -7.52746e+00       3.93624e-04       2.50663e+02
 10.700      2.21228e+02       4.39330e+01      -7.44140e+00       3.88774e-04       2.46842e+02
 10.800      2.20561e+02       4.46834e+01      -7.25440e+00       3.83988e-04       2.43069e+02
 10.900      2.19885e+02       4.54449e+01      -6.98313e+00       3.79264e-04       2.39342e+02
 11.000      2.19200e+02       4.61892e+01      -6.64425e+00       3.74597e-04       2.35660e+02
 11.100      2.18507e+02       4.68880e+01      -6.25444e+00       3.69985e-04       2.32023e+02
 11.200      2.17807e+02       4.75131e+01      -5.83038e+00       3.65427e-04       2.28430e+02
 11.300      2.17101e+02       4.80359e+01      -5.38874e+00       3.60918e-04       2.24881e+02
 11.400      2.16393e+02       4.84320e+01      -4.94649e+00       3.56453e-04       2.21374e+02
 11.500      2.15698e+02       4.86898e+01      -4.52158e+00       3.52008e-04       2.17912e+02
 11.600      2.15034e+02       4.88010e+01      -4.13221e+00       3.47556e-04       2.14493e+02
 11.700      2.14418e+02       4.87570e+01      -3.79660e+00       3.43073e-04       2.11120e+02
 11.800      2.13869e+02       4.85494e+01      -3.53292e+00       3.38534e-04       2.07793e+02
 11.900      2.13403e+02       4.81697e+01      -3.35938e+00       3.33916e-04       2.04513e+02
 12.000      2.13039e+02       4.76096e+01      -3.29418e+00       3.29199e-04       2.01279e+02
 12.100      2.12792e+02       4.68621e+01      -3.35392e+00       3.24364e-04       1.98094e+02
 12.200      2.12657e+02       4.59453e+01      -3.53127e+00       3.19428e-04       1.94955e+02
 12.300      2.12611e+02       4.48964e+01      -3.80049e+00       3.14432e-04       1.91864e+02
 12.400      2.12630e+02       4.37529e+01      -4.13537e+00       3.09416e-04       1.88820e+02
 12.500      2.12691e+02       4.25524e+01      -4.50972e+00       3.04416e-04       1.85823e+02
 12.600      2.12771e+02       4.13325e+01      -4.89732e+00       2.99469e-04       1.82872e+02
 12.700      2.12847e+02       4.01309e+01      -5.27196e+00       2.94606e-04       1.79966e+02
 12.800      2.12894e+02       3.89850e+01      -5.60744e+00       2.89860e-04       1.77107e+02
 12.900      2.12891e+02       3.79324e+01      -5.87765e+00       2.85258e-04       1.74292e+02
 13.000      2.12824e+02       3.69946e+01      -6.06921e+00       2.80813e-04       1.71522e+02
 13.100      2.12704e+02       3.61625e+01      -6.19319e+00       2.76506e-04       1.68796e+02
 13.200      2.12542e+02       3.54236e+01      -6.26344e+00       2.72319e-04       1.66114e+02
 13.300      2.12351e+02       3.47654e+01      -6.29382e+00       2.68234e-04       1.63475e+02
 13.400      2.12142e+02       3.41752e+01      -6.29818e+00       2.64233e-04       1.60878e+02
 13.500      2.11929e+02       3.36406e+01      -6.29039e+00       2.60300e-04       1.58324e+02
 13.600      2.11722e+02       3.31489e+01      -6.28429e+00       2.56419e-04       1.55811e+02
 13.700      2.11534e+02       3.26876e+01      -6.29374e+00       2.52576e-04       1.53339e+02
 13.800      2.11377e+02       3.22442e+01      -6.33261e+00       2.48756e-04       1.50908e+02
 13.900      2.11262e+02       3.18066e+01      -6.41384e+00       2.44948e-04       1.48517e+02
 14.000      2.11190e+02       3.13700e+01      -6.53828e+00       2.41150e-04       1.46165e+02
 14.100      2.11154e+02       3.09349e+01      -6.69789e+00       2.37371e-04       1.43849e+02
 14.200      2.11145e+02       3.05019e+01      -6.88446e+00       2.33618e-04       1.41569e+02
 14.300      2.11157e+02       3.00714e+01      -7.08979e+00       2.29898e-04       1.39323e+02
 14.400      2.11181e+02       2.96441e+01      -7.30565e+00       2.26217e-04       1.37108e+02
 14.500      2.11211e+02       2.92206e+01      -7.52384e+00       2.22583e-04       1.34924e+02
 14.600      2.11238e+02       2.88014e+01      -7.73614e+00       2.19000e-04       1.32769e+02
 14.700      2.11256e+02       2.83871e+01      -7.93433e+00       2.15473e-04       1.30643e+02
 14.800      2.11256e+02       2.79782e+01      -8.11021e+00       2.12009e-04       1.28542e+02
 14.900      2.11232e+02       2.75754e+01      -8.25556e+00       2.08611e-04       1.26467e+02
 15.000      2.11175e+02       2.71791e+01      -8.36222e+00       2.05284e-04       1.24417e+02
 15.100      2.11082e+02       2.67891e+01      -8.42600e+00       2.02029e-04       1.22390e+02
 15.200      2.10957e+02       2.64036e+01      -8.44974e+00       1.98844e-04       1.20389e+02
 15.300      2.10804e+02       2.60204e+01      -8.43701e+00       1.95726e-04       1.18415e+02
 15.400      2.10626e+02       2.56375e+01      -8.39137e+00       1.92672e-04       1.16470e+02
 15.500      2.10429e+02       2.52530e+01      -8.31636e+00       1.89680e-04       1.14554e+02
 15.600      2.10216e+02       2.48647e+01      -8.21557e+00       1.86747e-04       1.12668e+02
 15.700      2.09992e+02       2.44708e+01      -8.09254e+00       1.83870e-04       1.10814e+02
 15.800      2.09760e+02       2.40691e+01      -7.95082e+00       1.81048e-04       1.08993e+02
 15.900      2.09526e+02       2.36576e+01      -7.79400e+00       1.78278e-04       1.07205e+02
 16.000      2.09293e+02       2.32343e+01      -7.62562e+00       1.75557e-04       1.05452e+02
 16.100      2.09065e+02       2.27972e+01      -7.44923e+00       1.72884e-04       1.03733e+02
 16.200      2.08846e+02       2.23442e+01      -7.26841e+00       1.70257e-04       1.02050e+02
 16.300      2.08641e+02       2.18734e+01      -7.08671e+00       1.67674e-04       1.00403e+02
 16.400      2.08454e+02       2.13830e+01      -6.90743e+00       1.65132e-04       9.87928e+01
 16.500      2.08286e+02       2.08733e+01      -6.73164e+00       1.62631e-04       9.72175e+01
 16.600      2.08134e+02       2.03460e+01      -6.55924e+00       1.60168e-04       9.56757e+01
 16.700      2.08000e+02       1.98027e+01      -6.39015e+00       1.57742e-04       9.41657e+01
 16.800      2.07881e+02       1.92449e+01      -6.22427e+00       1.55352e-04       9.26860e+01
 16.900      2.07778e+02       1.86742e+01      -6.06150e+00       1.52996e-04       9.12347e+01
 17.000      2.07688e+02       1.80923e+01      -5.90174e+00       1.50672e-04       8.98106e+01
 17.100      2.07612e+02       1.75006e+01      -5.74492e+00       1.48381e-04       8.84122e+01
 17.200      2.07549e+02       1.69009e+01      -5.59092e+00       1.46119e-04       8.70382e+01
 17.300      2.07498e+02       1.62946e+01      -5.43965e+00       1.43887e-04       8.56873e+01
 17.400      2.07457e+02       1.56834e+01      -5.29103e+00       1.41683e-04       8.43582e+01
 17.500      2.07427e+02       1.50688e+01      -5.14495e+00       1.39506e-04       8.30498e+01
 17.600      2.07405e+02       1.44524e+01      -5.00132e+00       1.37355e-04       8.17610e+01
 17.700      2.07393e+02       1.38358e+01      -4.86004e+00       1.35229e-04       8.04907e+01
 17.800      2.07388e+02       1.32206e+01      -4.72103e+00       1.33128e-04       7.92379e+01
 17.900      2.07390e+02       1.26084e+01      -4.58418e+00       1.31049e-04       7.80017e+01
 18.000      2.07397e+02       1.20008e+01      -4.44940e+00       1.28994e-04       7.67812e+01
 18.100      2.07411e+02       1.13993e+01      -4.31659e+00       1.26960e-04       7.55754e+01
 18.200      2.07428e+02       1.08055e+01      -4.18566e+00       1.24948e-04       7.43836e+01
 18.300      2.07449e+02       1.02211e+01      -4.05653e+00       1.22956e-04       7.32051e+01
 18.400      2.07473e+02       9.64756e+00      -3.92908e+00       1.20983e-04       7.20390e+01
 18.500      2.07498e+02       9.08649e+00      -3.80323e+00       1.19030e-04       7.08848e+01
 18.600      2.07525e+02       8.53950e+00      -3.67888e+00       1.17096e-04       6.97417e+01
 18.700      2.07552e+02       8.00763e+00      -3.55611e+00       1.15180e-04       6.86096e+01
 18.800      2.07579e+02       7.49091e+00      -3.43538e+00       1.13284e-04       6.74890e+01
 18.900      2.07607e+02       6.98916e+00      -3.31717e+00       1.11408e-04       6.63807e+01
 19.000      2.07635e+02       6.50228e+00      -3.20198e+00       1.09555e-04       6.52852e+01
 19.100      2.07664e+02       6.03012e+00      -3.09030e+00       1.07724e-04       6.42031e+01
 19.200      2.07692e+02       5.57254e+00      -2.98263e+00       1.05917e-04       6.31349e+01
 19.300      2.07721e+02       5.12943e+00      -2.87945e+00       1.04135e-04       6.20811e+01
 19.400      2.07750e+02       4.70062e+00      -2.78126e+00       1.02378e-04       6.10422e+01
 19.500      2.07779e+02       4.28599e+00      -2.68855e+00       1.00647e-04       6.00185e+01
 19.600      2.07808e+02       3.88541e+00      -2.60181e+00       9.89432e-05       5.90105e+01
 19.700      2.07837e+02       3.49873e+00      -2.52154e+00       9.72662e-05       5.80184e+01
 19.800      2.07865e+02       3.12584e+00      -2.44823e+00       9.56170e-05       5.70426e+01
 19.900      2.07894e+02       2.76657e+00      -2.38237e+00       9.39961e-05       5.60833e+01
 20.000      2.07922e+02       2.42081e+00      -2.32446e+00       9.24037e-05       5.51407e+01
 20.100      2.07951e+02       2.08842e+00      -2.27498e+00       9.08402e-05       5.42151e+01
 20.200      2.07979e+02       1.76926e+00      -2.23444e+00       8.93060e-05       5.33067e+01
 20.300      2.08006e+02       1.46320e+00      -2.20331e+00       8.78013e-05       5.24155e+01
