# Data Source: NASA GEOS5 Near-Real-Time
# Model Time = 2010-12-20 18:00:00
# Location = [  39.7393, -104.9900 ]
# Fields = [ Z(km), T(K), U(m/s), V(m/s), R(g/cm3), P(mbar) ]
# Ground Height = 1.589
  0.000      2.93351e+02       3.87845e+00      -1.15293e+00       1.18760e-03       9.99866e+02
  0.100      2.92711e+02       3.90093e+00      -1.14972e+00       1.17628e-03       9.88172e+02
  0.200      2.92067e+02       3.91189e+00      -1.15906e+00       1.16509e-03       9.76613e+02
  0.300      2.91414e+02       3.90283e+00      -1.19001e+00       1.15403e-03       9.65182e+02
  0.400      2.90751e+02       3.88296e+00      -1.23092e+00       1.14310e-03       9.53865e+02
  0.500      2.90080e+02       3.86595e+00      -1.26361e+00       1.13227e-03       9.42646e+02
  0.600      2.89410e+02       3.83894e+00      -1.28521e+00       1.12151e-03       9.31529e+02
  0.700      2.88753e+02       3.77260e+00      -1.30286e+00       1.11078e-03       9.20530e+02
  0.800      2.88097e+02       3.68114e+00      -1.31754e+00       1.10016e-03       9.09651e+02
  0.900      2.87395e+02       3.63454e+00      -1.32209e+00       1.08979e-03       8.98885e+02
  1.000      2.86640e+02       3.67159e+00      -1.30807e+00       1.07970e-03       8.88225e+02
  1.100      2.85946e+02       3.72887e+00      -1.26462e+00       1.06946e-03       8.77672e+02
  1.200      2.85424e+02       3.72975e+00      -1.18644e+00       1.05867e-03       8.67228e+02
  1.300      2.84976e+02       3.64596e+00      -1.12061e+00       1.04770e-03       8.56892e+02
  1.400      2.84394e+02       3.47502e+00      -1.14080e+00       1.03731e-03       8.46662e+02
  1.500      2.83590e+02       3.25142e+00      -1.27036e+00       1.02781e-03       8.36534e+02
  1.600      2.82661e+02       3.06745e+00      -1.45303e+00       1.01882e-03       8.26506e+02
  1.700      2.81718e+02       3.01086e+00      -1.63058e+00       1.00995e-03       8.16574e+02
  1.800      2.80827e+02       3.10856e+00      -1.77653e+00       1.00095e-03       8.06737e+02
  1.900      2.80042e+02       3.36330e+00      -1.87643e+00       9.91629e-04       7.96992e+02
  2.000      2.79384e+02       3.74822e+00      -1.88819e+00       9.81929e-04       7.87342e+02
  2.100      2.78826e+02       4.18769e+00      -1.72412e+00       9.71959e-04       7.77791e+02
  2.200      2.78333e+02       4.61133e+00      -1.30314e+00       9.61849e-04       7.68341e+02
  2.300      2.77874e+02       5.04832e+00      -6.54091e-01       9.51715e-04       7.58992e+02
  2.400      2.77415e+02       5.58567e+00       1.30301e-01       9.41672e-04       7.49743e+02
  2.500      2.76933e+02       6.29592e+00       9.69069e-01       9.31797e-04       7.40591e+02
  2.600      2.76439e+02       7.19578e+00       1.82737e+00       9.22048e-04       7.31534e+02
  2.700      2.75951e+02       8.28886e+00       2.68097e+00       9.12360e-04       7.22570e+02
  2.800      2.75478e+02       9.55470e+00       3.50541e+00       9.02703e-04       7.13697e+02
  2.900      2.75013e+02       1.09287e+01       4.27585e+00       8.93107e-04       7.04919e+02
  3.000      2.74546e+02       1.23419e+01       4.96771e+00       8.83611e-04       6.96239e+02
  3.100      2.74072e+02       1.37309e+01       5.56714e+00       8.74226e-04       6.87654e+02
  3.200      2.73593e+02       1.50391e+01       6.07289e+00       8.64942e-04       6.79162e+02
  3.300      2.73110e+02       1.62120e+01       6.48486e+00       8.55748e-04       6.70758e+02
  3.400      2.72625e+02       1.72360e+01       6.81074e+00       8.46641e-04       6.62440e+02
  3.500      2.72134e+02       1.81373e+01       7.06600e+00       8.37630e-04       6.54209e+02
  3.600      2.71636e+02       1.89439e+01       7.26568e+00       8.28720e-04       6.46067e+02
  3.700      2.71129e+02       1.96792e+01       7.40679e+00       8.19919e-04       6.38011e+02
  3.800      2.70608e+02       2.03620e+01       7.46752e+00       8.11233e-04       6.30041e+02
  3.900      2.70072e+02       2.10108e+01       7.42563e+00       8.02670e-04       6.22154e+02
  4.000      2.69515e+02       2.16414e+01       7.27934e+00       7.94240e-04       6.14351e+02
  4.100      2.68932e+02       2.22649e+01       7.05631e+00       7.85955e-04       6.06628e+02
  4.200      2.68318e+02       2.28925e+01       6.78645e+00       7.77830e-04       5.98985e+02
  4.300      2.67672e+02       2.35262e+01       6.49521e+00       7.69861e-04       5.91422e+02
  4.400      2.67010e+02       2.41437e+01       6.19607e+00       7.62003e-04       5.83936e+02
  4.500      2.66349e+02       2.47191e+01       5.90048e+00       7.54200e-04       5.76527e+02
  4.600      2.65705e+02       2.52297e+01       5.62150e+00       7.46411e-04       5.69194e+02
  4.700      2.65076e+02       2.56812e+01       5.38442e+00       7.38644e-04       5.61936e+02
  4.800      2.64448e+02       2.60920e+01       5.22012e+00       7.30935e-04       5.54754e+02
  4.900      2.63809e+02       2.64806e+01       5.15901e+00       7.23318e-04       5.47647e+02
  5.000      2.63150e+02       2.68639e+01       5.20341e+00       7.15817e-04       5.40614e+02
  5.100      2.62463e+02       2.72567e+01       5.31189e+00       7.08449e-04       5.33653e+02
  5.200      2.61743e+02       2.76733e+01       5.43921e+00       7.01226e-04       5.26762e+02
  5.300      2.60983e+02       2.81259e+01       5.54485e+00       6.94158e-04       5.19939e+02
  5.400      2.60198e+02       2.86061e+01       5.62988e+00       6.87207e-04       5.13184e+02
  5.500      2.59408e+02       2.90945e+01       5.71727e+00       6.80319e-04       5.06497e+02
  5.600      2.58635e+02       2.95718e+01       5.83015e+00       6.73436e-04       4.99880e+02
  5.700      2.57895e+02       3.00223e+01       5.98403e+00       6.66522e-04       4.93332e+02
  5.800      2.57177e+02       3.04445e+01       6.16547e+00       6.59603e-04       4.86852e+02
  5.900      2.56465e+02       3.08401e+01       6.35419e+00       6.52721e-04       4.80439e+02
  6.000      2.55744e+02       3.12109e+01       6.52989e+00       6.45914e-04       4.74091e+02
  6.100      2.55002e+02       3.15588e+01       6.67758e+00       6.39207e-04       4.67807e+02
  6.200      2.54248e+02       3.18862e+01       6.79600e+00       6.32579e-04       4.61588e+02
  6.300      2.53491e+02       3.21952e+01       6.88615e+00       6.26009e-04       4.55434e+02
  6.400      2.52742e+02       3.24882e+01       6.94901e+00       6.19470e-04       4.49346e+02
  6.500      2.52008e+02       3.27695e+01       6.98597e+00       6.12949e-04       4.43323e+02
  6.600      2.51286e+02       3.30490e+01       6.99950e+00       6.06449e-04       4.37365e+02
  6.700      2.50573e+02       3.33376e+01       6.99232e+00       5.99979e-04       4.31471e+02
  6.800      2.49864e+02       3.36462e+01       6.96711e+00       5.93547e-04       4.25639e+02
  6.900      2.49158e+02       3.39823e+01       6.92715e+00       5.87160e-04       4.19868e+02
  7.000      2.48451e+02       3.43335e+01       6.87901e+00       5.80823e-04       4.14159e+02
  7.100      2.47745e+02       3.46810e+01       6.83038e+00       5.74535e-04       4.08511e+02
  7.200      2.47037e+02       3.50055e+01       6.78894e+00       5.68301e-04       4.02924e+02
  7.300      2.46328e+02       3.52886e+01       6.76244e+00       5.62121e-04       3.97399e+02
  7.400      2.45618e+02       3.55272e+01       6.75983e+00       5.55996e-04       3.91934e+02
  7.500      2.44907e+02       3.57349e+01       6.79141e+00       5.49922e-04       3.86530e+02
  7.600      2.44195e+02       3.59260e+01       6.86751e+00       5.43899e-04       3.81186e+02
  7.700      2.43484e+02       3.61149e+01       6.99849e+00       5.37923e-04       3.75900e+02
  7.800      2.42774e+02       3.63172e+01       7.19279e+00       5.31993e-04       3.70673e+02
  7.900      2.42069e+02       3.65561e+01       7.44600e+00       5.26102e-04       3.65503e+02
  8.000      2.41369e+02       3.68584e+01       7.74842e+00       5.20246e-04       3.60390e+02
  8.100      2.40680e+02       3.72507e+01       8.09032e+00       5.14417e-04       3.55335e+02
  8.200      2.40003e+02       3.77597e+01       8.46198e+00       5.08612e-04       3.50336e+02
  8.300      2.39340e+02       3.84063e+01       8.85159e+00       5.02825e-04       3.45394e+02
  8.400      2.38689e+02       3.91836e+01       9.23711e+00       4.97065e-04       3.40508e+02
  8.500      2.38044e+02       4.00761e+01       9.59338e+00       4.91341e-04       3.35678e+02
  8.600      2.37401e+02       4.10684e+01       9.89523e+00       4.85665e-04       3.30903e+02
  8.700      2.36755e+02       4.21449e+01       1.01175e+01       4.80044e-04       3.26183e+02
  8.800      2.36101e+02       4.32900e+01       1.02376e+01       4.74489e-04       3.21518e+02
  8.900      2.35436e+02       4.44850e+01       1.02552e+01       4.69004e-04       3.16907e+02
  9.000      2.34758e+02       4.57099e+01       1.01820e+01       4.63596e-04       3.12349e+02
  9.100      2.34062e+02       4.69449e+01       1.00294e+01       4.58266e-04       3.07845e+02
  9.200      2.33348e+02       4.81699e+01       9.80897e+00       4.53021e-04       3.03392e+02
  9.300      2.32612e+02       4.93650e+01       9.53227e+00       4.47863e-04       2.98991e+02
  9.400      2.31852e+02       5.05174e+01       9.21196e+00       4.42794e-04       2.94642e+02
  9.500      2.31071e+02       5.16295e+01       8.86297e+00       4.37806e-04       2.90342e+02
  9.600      2.30272e+02       5.27051e+01       8.50051e+00       4.32894e-04       2.86091e+02
  9.700      2.29457e+02       5.37483e+01       8.13978e+00       4.28049e-04       2.81888e+02
  9.800      2.28628e+02       5.47631e+01       7.79599e+00       4.23266e-04       2.77731e+02
  9.900      2.27788e+02       5.57534e+01       7.48425e+00       4.18539e-04       2.73620e+02
 10.000      2.26940e+02       5.67170e+01       7.21384e+00       4.13861e-04       2.69555e+02
 10.100      2.26087e+02       5.76428e+01       6.98509e+00       4.09225e-04       2.65534e+02
 10.200      2.25234e+02       5.85185e+01       6.79759e+00       4.04625e-04       2.61559e+02
 10.300      2.24384e+02       5.93321e+01       6.65091e+00       4.00055e-04       2.57628e+02
 10.400      2.23541e+02       6.00714e+01       6.54465e+00       3.95507e-04       2.53742e+02
 10.500      2.22708e+02       6.07245e+01       6.47836e+00       3.90977e-04       2.49902e+02
 10.600      2.21889e+02       6.12821e+01       6.45432e+00       3.86460e-04       2.46105e+02
 10.700      2.21079e+02       6.17456e+01       6.48466e+00       3.81962e-04       2.42354e+02
 10.800      2.20275e+02       6.21192e+01       6.58384e+00       3.77491e-04       2.38645e+02
 10.900      2.19473e+02       6.24069e+01       6.76628e+00       3.73052e-04       2.34981e+02
 11.000      2.18668e+02       6.26126e+01       7.04644e+00       3.68654e-04       2.31359e+02
 11.100      2.17856e+02       6.27404e+01       7.43876e+00       3.64303e-04       2.27780e+02
 11.200      2.17034e+02       6.27942e+01       7.95758e+00       3.60005e-04       2.24243e+02
 11.300      2.16200e+02       6.27810e+01       8.60077e+00       3.55760e-04       2.20747e+02
 11.400      2.15362e+02       6.27134e+01       9.33095e+00       3.51558e-04       2.17294e+02
 11.500      2.14525e+02       6.26050e+01       1.01062e+01       3.47387e-04       2.13882e+02
 11.600      2.13698e+02       6.24695e+01       1.08846e+01       3.43235e-04       2.10511e+02
 11.700      2.12888e+02       6.23202e+01       1.16241e+01       3.39090e-04       2.07181e+02
 11.800      2.12103e+02       6.21709e+01       1.22830e+01       3.34943e-04       2.03892e+02
 11.900      2.11349e+02       6.20349e+01       1.28192e+01       3.30782e-04       2.00643e+02
 12.000      2.10635e+02       6.19218e+01       1.31952e+01       3.26597e-04       1.97435e+02
 12.100      2.09966e+02       6.18101e+01       1.34051e+01       3.22382e-04       1.94268e+02
 12.200      2.09350e+02       6.16646e+01       1.34574e+01       3.18128e-04       1.91143e+02
 12.300      2.08793e+02       6.14500e+01       1.33607e+01       3.13832e-04       1.88059e+02
 12.400      2.08300e+02       6.11313e+01       1.31235e+01       3.09486e-04       1.85017e+02
 12.500      2.07879e+02       6.06730e+01       1.27543e+01       3.05086e-04       1.82018e+02
 12.600      2.07536e+02       6.00400e+01       1.22617e+01       3.00627e-04       1.79062e+02
 12.700      2.07277e+02       5.91970e+01       1.16541e+01       2.96105e-04       1.76149e+02
 12.800      2.07109e+02       5.81113e+01       1.09412e+01       2.91518e-04       1.73279e+02
 12.900      2.07025e+02       5.67882e+01       1.01479e+01       2.86880e-04       1.70453e+02
 13.000      2.07011e+02       5.52621e+01       9.31083e+00       2.82216e-04       1.67671e+02
 13.100      2.07054e+02       5.35680e+01       8.46699e+00       2.77552e-04       1.64934e+02
 13.200      2.07140e+02       5.17410e+01       7.65336e+00       2.72910e-04       1.62242e+02
 13.300      2.07253e+02       4.98163e+01       6.90693e+00       2.68312e-04       1.59596e+02
 13.400      2.07380e+02       4.78290e+01       6.26468e+00       2.63779e-04       1.56996e+02
 13.500      2.07507e+02       4.58140e+01       5.76357e+00       2.59330e-04       1.54442e+02
 13.600      2.07619e+02       4.38066e+01       5.44062e+00       2.54981e-04       1.51935e+02
 13.700      2.07702e+02       4.18418e+01       5.33266e+00       2.50750e-04       1.49473e+02
 13.800      2.07748e+02       3.99474e+01       5.45571e+00       2.46644e-04       1.47058e+02
 13.900      2.07756e+02       3.81356e+01       5.78122e+00       2.42655e-04       1.44685e+02
 14.000      2.07729e+02       3.64167e+01       6.27490e+00       2.38774e-04       1.42353e+02
 14.100      2.07670e+02       3.48008e+01       6.90246e+00       2.34992e-04       1.40058e+02
 14.200      2.07579e+02       3.32983e+01       7.62962e+00       2.31300e-04       1.37798e+02
 14.300      2.07460e+02       3.19194e+01       8.42209e+00       2.27691e-04       1.35570e+02
 14.400      2.07315e+02       3.06743e+01       9.24558e+00       2.24157e-04       1.33372e+02
 14.500      2.07145e+02       2.95733e+01       1.00658e+01       2.20691e-04       1.31202e+02
 14.600      2.06953e+02       2.86266e+01       1.08485e+01       2.17286e-04       1.29058e+02
 14.700      2.06742e+02       2.78444e+01       1.15593e+01       2.13935e-04       1.26938e+02
 14.800      2.06512e+02       2.72370e+01       1.21641e+01       2.10633e-04       1.24840e+02
 14.900      2.06267e+02       2.68082e+01       1.26378e+01       2.07375e-04       1.22764e+02
 15.000      2.06011e+02       2.65413e+01       1.29855e+01       2.04160e-04       1.20710e+02
 15.100      2.05747e+02       2.64153e+01       1.32180e+01       2.00987e-04       1.18682e+02
 15.200      2.05479e+02       2.64096e+01       1.33463e+01       1.97856e-04       1.16681e+02
 15.300      2.05211e+02       2.65032e+01       1.33814e+01       1.94766e-04       1.14709e+02
 15.400      2.04948e+02       2.66754e+01       1.33340e+01       1.91716e-04       1.12768e+02
 15.500      2.04692e+02       2.69054e+01       1.32151e+01       1.88707e-04       1.10859e+02
 15.600      2.04449e+02       2.71723e+01       1.30356e+01       1.85736e-04       1.08984e+02
 15.700      2.04221e+02       2.74552e+01       1.28064e+01       1.82805e-04       1.07144e+02
 15.800      2.04012e+02       2.77335e+01       1.25385e+01       1.79912e-04       1.05341e+02
 15.900      2.03827e+02       2.79862e+01       1.22427e+01       1.77057e-04       1.03576e+02
 16.000      2.03670e+02       2.81926e+01       1.19299e+01       1.74239e-04       1.01848e+02
 16.100      2.03544e+02       2.83318e+01       1.16111e+01       1.71458e-04       1.00161e+02
 16.200      2.03453e+02       2.83861e+01       1.12957e+01       1.68712e-04       9.85128e+01
 16.300      2.03396e+02       2.83547e+01       1.09858e+01       1.66002e-04       9.69033e+01
 16.400      2.03371e+02       2.82421e+01       1.06807e+01       1.63328e-04       9.53303e+01
 16.500      2.03377e+02       2.80531e+01       1.03801e+01       1.60687e-04       9.37918e+01
 16.600      2.03411e+02       2.77922e+01       1.00834e+01       1.58081e-04       9.22862e+01
 16.700      2.03472e+02       2.74642e+01       9.78997e+00       1.55509e-04       9.08117e+01
 16.800      2.03558e+02       2.70737e+01       9.49940e+00       1.52970e-04       8.93667e+01
 16.900      2.03667e+02       2.66254e+01       9.21114e+00       1.50463e-04       8.79496e+01
 17.000      2.03798e+02       2.61239e+01       8.92466e+00       1.47989e-04       8.65590e+01
 17.100      2.03949e+02       2.55739e+01       8.63945e+00       1.45547e-04       8.51936e+01
 17.200      2.04117e+02       2.49800e+01       8.35497e+00       1.43137e-04       8.38518e+01
 17.300      2.04302e+02       2.43470e+01       8.07073e+00       1.40757e-04       8.25326e+01
 17.400      2.04501e+02       2.36794e+01       7.78617e+00       1.38409e-04       8.12346e+01
 17.500      2.04712e+02       2.29819e+01       7.50079e+00       1.36091e-04       7.99567e+01
 17.600      2.04934e+02       2.22592e+01       7.21407e+00       1.33804e-04       7.86979e+01
 17.700      2.05165e+02       2.15159e+01       6.92548e+00       1.31546e-04       7.74570e+01
 17.800      2.05402e+02       2.07568e+01       6.63450e+00       1.29317e-04       7.62331e+01
 17.900      2.05646e+02       1.99864e+01       6.34061e+00       1.27118e-04       7.50253e+01
 18.000      2.05892e+02       1.92094e+01       6.04329e+00       1.24947e-04       7.38326e+01
 18.100      2.06141e+02       1.84305e+01       5.74201e+00       1.22805e-04       7.26542e+01
 18.200      2.06389e+02       1.76544e+01       5.43626e+00       1.20690e-04       7.14893e+01
 18.300      2.06635e+02       1.68856e+01       5.12551e+00       1.18604e-04       7.03372e+01
 18.400      2.06878e+02       1.61287e+01       4.80935e+00       1.16545e-04       6.91973e+01
 18.500      2.07116e+02       1.53863e+01       4.48843e+00       1.14514e-04       6.80695e+01
 18.600      2.07349e+02       1.46596e+01       4.16406e+00       1.12512e-04       6.69547e+01
 18.700      2.07575e+02       1.39503e+01       3.83754e+00       1.10540e-04       6.58532e+01
 18.800      2.07795e+02       1.32596e+01       3.51016e+00       1.08599e-04       6.47655e+01
 18.900      2.08008e+02       1.25890e+01       3.18323e+00       1.06690e-04       6.36921e+01
 19.000      2.08213e+02       1.19400e+01       2.85804e+00       1.04813e-04       6.26334e+01
 19.100      2.08409e+02       1.13139e+01       2.53589e+00       1.02970e-04       6.15897e+01
 19.200      2.08596e+02       1.07121e+01       2.21810e+00       1.01160e-04       6.05615e+01
 19.300      2.08773e+02       1.01361e+01       1.90595e+00       9.93843e-05       5.95489e+01
 19.400      2.08939e+02       9.58724e+00       1.60074e+00       9.76432e-05       5.85523e+01
 19.500      2.09095e+02       9.06701e+00       1.30378e+00       9.59370e-05       5.75719e+01
 19.600      2.09238e+02       8.57679e+00       1.01637e+00       9.42661e-05       5.66080e+01
 19.700      2.09369e+02       8.11801e+00       7.39810e-01       9.26306e-05       5.56607e+01
 19.800      2.09486e+02       7.69209e+00       4.75400e-01       9.10309e-05       5.47302e+01
 19.900      2.09590e+02       7.30043e+00       2.24433e-01       8.94669e-05       5.38165e+01
 20.000      2.09680e+02       6.94445e+00      -1.17858e-02       8.79389e-05       5.29199e+01
 20.100      2.09754e+02       6.62557e+00      -2.31955e-01       8.64468e-05       5.20405e+01
 20.200      2.09812e+02       6.34521e+00      -4.34775e-01       8.49908e-05       5.11782e+01
 20.300      2.09855e+02       6.10479e+00      -6.18942e-01       8.35707e-05       5.03332e+01
