# Data Source: NASA MERRA (version 2)
# Model Time = 2011-01-06 18:00:00
# Location = [  39.1026,  -84.5123 ]
# Fields = [ Z(km), T(K), U(m/s), V(m/s), R(g/cm3), P(mbar) ]
# Ground Height = 0.165
  0.000      2.77124e+02       8.47411e+00       2.70624e+00       1.26257e-03       1.00418e+03
  0.100      2.76592e+02       8.20200e+00       2.65104e+00       1.24949e-03       9.91870e+02
  0.200      2.75967e+02       8.18734e+00       2.66732e+00       1.23696e-03       9.79703e+02
  0.300      2.75122e+02       8.78187e+00       2.85141e+00       1.22551e-03       9.67659e+02
  0.400      2.74098e+02       9.80322e+00       3.13225e+00       1.21491e-03       9.55723e+02
  0.500      2.73063e+02       1.06889e+01       3.32017e+00       1.20441e-03       9.43884e+02
  0.600      2.72100e+02       1.12845e+01       3.36443e+00       1.19364e-03       9.32146e+02
  0.700      2.71209e+02       1.18305e+01       3.34899e+00       1.18263e-03       9.20522e+02
  0.800      2.70363e+02       1.24332e+01       3.32473e+00       1.17150e-03       9.09016e+02
  0.900      2.69507e+02       1.29961e+01       3.29069e+00       1.16048e-03       8.97615e+02
  1.000      2.68612e+02       1.34596e+01       3.23626e+00       1.14969e-03       8.86312e+02
  1.100      2.67707e+02       1.38742e+01       3.13785e+00       1.13899e-03       8.75109e+02
  1.200      2.66830e+02       1.43053e+01       2.97016e+00       1.12824e-03       8.64010e+02
  1.300      2.66022e+02       1.48179e+01       2.70789e+00       1.11727e-03       8.53018e+02
  1.400      2.65315e+02       1.54686e+01       2.33048e+00       1.10596e-03       8.42138e+02
  1.500      2.64707e+02       1.62318e+01       1.86237e+00       1.09433e-03       8.31372e+02
  1.600      2.64172e+02       1.70365e+01       1.35292e+00       1.08249e-03       8.20720e+02
  1.700      2.63687e+02       1.78112e+01       8.51753e-01       1.07056e-03       8.10183e+02
  1.800      2.63226e+02       1.84844e+01       4.08491e-01       1.05865e-03       7.99764e+02
  1.900      2.62771e+02       1.90029e+01       6.19196e-02       1.04682e-03       7.89462e+02
  2.000      2.62324e+02       1.93816e+01      -1.89651e-01       1.03507e-03       7.79277e+02
  2.100      2.61892e+02       1.96515e+01      -3.57361e-01       1.02339e-03       7.69208e+02
  2.200      2.61483e+02       1.98435e+01      -4.52351e-01       1.01172e-03       7.59254e+02
  2.300      2.61103e+02       1.99885e+01      -4.85761e-01       1.00006e-03       7.49415e+02
  2.400      2.60757e+02       2.01133e+01      -4.70014e-01       9.88395e-04       7.39689e+02
  2.500      2.60434e+02       2.02305e+01      -4.21818e-01       9.76760e-04       7.30076e+02
  2.600      2.60121e+02       2.03501e+01      -3.58776e-01       9.65208e-04       7.20575e+02
  2.700      2.59805e+02       2.04819e+01      -2.98493e-01       9.53790e-04       7.11186e+02
  2.800      2.59473e+02       2.06357e+01      -2.58572e-01       9.42551e-04       7.01907e+02
  2.900      2.59113e+02       2.08204e+01      -2.54627e-01       9.31532e-04       6.92739e+02
  3.000      2.58723e+02       2.10374e+01      -2.87235e-01       9.20734e-04       6.83678e+02
  3.100      2.58306e+02       2.12848e+01      -3.50097e-01       9.10143e-04       6.74723e+02
  3.200      2.57862e+02       2.15605e+01      -4.36881e-01       8.99745e-04       6.65870e+02
  3.300      2.57396e+02       2.18627e+01      -5.41251e-01       8.89527e-04       6.57117e+02
  3.400      2.56908e+02       2.21892e+01      -6.56882e-01       8.79477e-04       6.48462e+02
  3.500      2.56403e+02       2.25393e+01      -7.79422e-01       8.69580e-04       6.39903e+02
  3.600      2.55884e+02       2.29145e+01      -9.09203e-01       8.59819e-04       6.31440e+02
  3.700      2.55356e+02       2.33170e+01      -1.04724e+00       8.50176e-04       6.23071e+02
  3.800      2.54825e+02       2.37487e+01      -1.19454e+00       8.40636e-04       6.14798e+02
  3.900      2.54295e+02       2.42117e+01      -1.35211e+00       8.31181e-04       6.06619e+02
  4.000      2.53771e+02       2.47081e+01      -1.52098e+00       8.21797e-04       5.98533e+02
  4.100      2.53256e+02       2.52365e+01      -1.70199e+00       8.12473e-04       5.90541e+02
  4.200      2.52749e+02       2.57882e+01      -1.89571e+00       8.03211e-04       5.82641e+02
  4.300      2.52249e+02       2.63533e+01      -2.10262e+00       7.94016e-04       5.74831e+02
  4.400      2.51755e+02       2.69218e+01      -2.32322e+00       7.84889e-04       5.67112e+02
  4.500      2.51266e+02       2.74839e+01      -2.55801e+00       7.75835e-04       5.59480e+02
  4.600      2.50780e+02       2.80297e+01      -2.80747e+00       7.66856e-04       5.51935e+02
  4.700      2.50295e+02       2.85499e+01      -3.07210e+00       7.57957e-04       5.44477e+02
  4.800      2.49809e+02       2.90423e+01      -3.35236e+00       7.49148e-04       5.37103e+02
  4.900      2.49317e+02       2.95080e+01      -3.64868e+00       7.40442e-04       5.29815e+02
  5.000      2.48813e+02       2.99484e+01      -3.96152e+00       7.31853e-04       5.22611e+02
  5.100      2.48293e+02       3.03646e+01      -4.29131e+00       7.23394e-04       5.15491e+02
  5.200      2.47752e+02       3.07579e+01      -4.63850e+00       7.15077e-04       5.08455e+02
  5.300      2.47186e+02       3.11296e+01      -5.00352e+00       7.06913e-04       5.01502e+02
  5.400      2.46591e+02       3.14814e+01      -5.38628e+00       6.98912e-04       4.94631e+02
  5.500      2.45963e+02       3.18182e+01      -5.78255e+00       6.91075e-04       4.87840e+02
  5.600      2.45304e+02       3.21468e+01      -6.18612e+00       6.83396e-04       4.81126e+02
  5.700      2.44611e+02       3.24737e+01      -6.59079e+00       6.75872e-04       4.74485e+02
  5.800      2.43885e+02       3.28055e+01      -6.99034e+00       6.68496e-04       4.67914e+02
  5.900      2.43125e+02       3.31491e+01      -7.37856e+00       6.61266e-04       4.61411e+02
  6.000      2.42330e+02       3.35108e+01      -7.74925e+00       6.54177e-04       4.54972e+02
  6.100      2.41500e+02       3.38975e+01      -8.09620e+00       6.47225e-04       4.48595e+02
  6.200      2.40635e+02       3.43112e+01      -8.41312e+00       6.40405e-04       4.42278e+02
  6.300      2.39743e+02       3.47447e+01      -8.69366e+00       6.33701e-04       4.36026e+02
  6.400      2.38829e+02       3.51897e+01      -8.93139e+00       6.27103e-04       4.29841e+02
  6.500      2.37900e+02       3.56377e+01      -9.11992e+00       6.20595e-04       4.23725e+02
  6.600      2.36962e+02       3.60805e+01      -9.25284e+00       6.14166e-04       4.17683e+02
  6.700      2.36022e+02       3.65095e+01      -9.32376e+00       6.07803e-04       4.11716e+02
  6.800      2.35086e+02       3.69165e+01      -9.32628e+00       6.01493e-04       4.05826e+02
  6.900      2.34161e+02       3.72930e+01      -9.25399e+00       5.95225e-04       4.00017e+02
  7.000      2.33253e+02       3.76322e+01      -9.10363e+00       5.88984e-04       3.94287e+02
  7.100      2.32363e+02       3.79337e+01      -8.88460e+00       5.82754e-04       3.88629e+02
  7.200      2.31494e+02       3.81983e+01      -8.60949e+00       5.76516e-04       3.83030e+02
  7.300      2.30646e+02       3.84272e+01      -8.29088e+00       5.70252e-04       3.77481e+02
  7.400      2.29822e+02       3.86214e+01      -7.94137e+00       5.63946e-04       3.71972e+02
  7.500      2.29022e+02       3.87820e+01      -7.57355e+00       5.57581e-04       3.66495e+02
  7.600      2.28249e+02       3.89099e+01      -7.20000e+00       5.51143e-04       3.61039e+02
  7.700      2.27503e+02       3.90062e+01      -6.83332e+00       5.44616e-04       3.55599e+02
  7.800      2.26787e+02       3.90720e+01      -6.48610e+00       5.37988e-04       3.50166e+02
  7.900      2.26102e+02       3.91081e+01      -6.16875e+00       5.31256e-04       3.44739e+02
  8.000      2.25449e+02       3.91144e+01      -5.88211e+00       5.24455e-04       3.39343e+02
  8.100      2.24831e+02       3.90904e+01      -5.62442e+00       5.17632e-04       3.34010e+02
  8.200      2.24250e+02       3.90358e+01      -5.39390e+00       5.10831e-04       3.28769e+02
  8.300      2.23707e+02       3.89501e+01      -5.18879e+00       5.04093e-04       3.23647e+02
  8.400      2.23204e+02       3.88331e+01      -5.00731e+00       4.97458e-04       3.18669e+02
  8.500      2.22743e+02       3.86843e+01      -4.84770e+00       4.90962e-04       3.13859e+02
  8.600      2.22327e+02       3.85032e+01      -4.70818e+00       4.84642e-04       3.09239e+02
  8.700      2.21956e+02       3.82896e+01      -4.58698e+00       4.78530e-04       3.04830e+02
  8.800      2.21633e+02       3.80430e+01      -4.48234e+00       4.72658e-04       3.00652e+02
  8.900      2.21360e+02       3.77634e+01      -4.39256e+00       4.67051e-04       2.96719e+02
  9.000      2.21135e+02       3.74534e+01      -4.31650e+00       4.61690e-04       2.93015e+02
  9.100      2.20954e+02       3.71167e+01      -4.25321e+00       4.56545e-04       2.89513e+02
  9.200      2.20816e+02       3.67568e+01      -4.20175e+00       4.51584e-04       2.86188e+02
  9.300      2.20718e+02       3.63773e+01      -4.16120e+00       4.46777e-04       2.83016e+02
  9.400      2.20658e+02       3.59819e+01      -4.13060e+00       4.42098e-04       2.79975e+02
  9.500      2.20631e+02       3.55743e+01      -4.10902e+00       4.37518e-04       2.77042e+02
  9.600      2.20637e+02       3.51579e+01      -4.09553e+00       4.33013e-04       2.74196e+02
  9.700      2.20671e+02       3.47364e+01      -4.08918e+00       4.28558e-04       2.71417e+02
  9.800      2.20732e+02       3.43135e+01      -4.08904e+00       4.24128e-04       2.68685e+02
  9.900      2.20817e+02       3.38928e+01      -4.09417e+00       4.19702e-04       2.65983e+02
 10.000      2.20922e+02       3.34779e+01      -4.10364e+00       4.15257e-04       2.63292e+02
 10.100      2.21046e+02       3.30723e+01      -4.11649e+00       4.10772e-04       2.60595e+02
 10.200      2.21186e+02       3.26798e+01      -4.13181e+00       4.06229e-04       2.57875e+02
 10.300      2.21339e+02       3.23039e+01      -4.14864e+00       4.01607e-04       2.55118e+02
 10.400      2.21502e+02       3.19483e+01      -4.16605e+00       3.96890e-04       2.52307e+02
 10.500      2.21672e+02       3.16165e+01      -4.18311e+00       3.92060e-04       2.49429e+02
 10.600      2.21848e+02       3.13103e+01      -4.19945e+00       3.87110e-04       2.46474e+02
 10.700      2.22026e+02       3.10270e+01      -4.21599e+00       3.82049e-04       2.43447e+02
 10.800      2.22202e+02       3.07634e+01      -4.23385e+00       3.76891e-04       2.40351e+02
 10.900      2.22374e+02       3.05164e+01      -4.25412e+00       3.71646e-04       2.37190e+02
 11.000      2.22539e+02       3.02825e+01      -4.27791e+00       3.66327e-04       2.33969e+02
 11.100      2.22695e+02       3.00587e+01      -4.30632e+00       3.60945e-04       2.30692e+02
 11.200      2.22836e+02       2.98418e+01      -4.34046e+00       3.55510e-04       2.27363e+02
 11.300      2.22962e+02       2.96284e+01      -4.38142e+00       3.50034e-04       2.23987e+02
 11.400      2.23069e+02       2.94154e+01      -4.43031e+00       3.44526e-04       2.20568e+02
 11.500      2.23153e+02       2.91996e+01      -4.48823e+00       3.38996e-04       2.17110e+02
 11.600      2.23213e+02       2.89777e+01      -4.55629e+00       3.33453e-04       2.13617e+02
 11.700      2.23244e+02       2.87465e+01      -4.63558e+00       3.27908e-04       2.10094e+02
 11.800      2.23244e+02       2.85028e+01      -4.72722e+00       3.22366e-04       2.06543e+02
 11.900      2.23210e+02       2.82433e+01      -4.83229e+00       3.16838e-04       2.02970e+02
 12.000      2.23138e+02       2.79650e+01      -4.95192e+00       3.11331e-04       1.99379e+02
 12.100      2.23029e+02       2.76661e+01      -5.08618e+00       3.05853e-04       1.95774e+02
 12.200      2.22884e+02       2.73495e+01      -5.23278e+00       3.00414e-04       1.92168e+02
 12.300      2.22708e+02       2.70182e+01      -5.38903e+00       2.95023e-04       1.88570e+02
 12.400      2.22505e+02       2.66757e+01      -5.55227e+00       2.89691e-04       1.84993e+02
 12.500      2.22278e+02       2.63251e+01      -5.71983e+00       2.84424e-04       1.81445e+02
 12.600      2.22032e+02       2.59696e+01      -5.88904e+00       2.79231e-04       1.77935e+02
 12.700      2.21770e+02       2.56126e+01      -6.05723e+00       2.74120e-04       1.74472e+02
 12.800      2.21497e+02       2.52572e+01      -6.22173e+00       2.69096e-04       1.71063e+02
 12.900      2.21216e+02       2.49068e+01      -6.37987e+00       2.64166e-04       1.67716e+02
 13.000      2.20931e+02       2.45644e+01      -6.52897e+00       2.59334e-04       1.64436e+02
 13.100      2.20646e+02       2.42335e+01      -6.66638e+00       2.54607e-04       1.61231e+02
 13.200      2.20365e+02       2.39172e+01      -6.78941e+00       2.49988e-04       1.58104e+02
 13.300      2.20092e+02       2.36189e+01      -6.89540e+00       2.45482e-04       1.55062e+02
 13.400      2.19831e+02       2.33416e+01      -6.98168e+00       2.41091e-04       1.52108e+02
 13.500      2.19585e+02       2.30887e+01      -7.04560e+00       2.36820e-04       1.49246e+02
 13.600      2.19358e+02       2.28618e+01      -7.08578e+00       2.32668e-04       1.46477e+02
 13.700      2.19147e+02       2.26595e+01      -7.10326e+00       2.28631e-04       1.43798e+02
 13.800      2.18954e+02       2.24801e+01      -7.09934e+00       2.24703e-04       1.41203e+02
 13.900      2.18776e+02       2.23218e+01      -7.07532e+00       2.20882e-04       1.38689e+02
 14.000      2.18613e+02       2.21831e+01      -7.03248e+00       2.17161e-04       1.36251e+02
 14.100      2.18463e+02       2.20622e+01      -6.97213e+00       2.13537e-04       1.33885e+02
 14.200      2.18327e+02       2.19573e+01      -6.89556e+00       2.10005e-04       1.31589e+02
 14.300      2.18203e+02       2.18668e+01      -6.80406e+00       2.06563e-04       1.29358e+02
 14.400      2.18090e+02       2.17890e+01      -6.69894e+00       2.03205e-04       1.27190e+02
 14.500      2.17987e+02       2.17221e+01      -6.58147e+00       1.99930e-04       1.25081e+02
 14.600      2.17894e+02       2.16645e+01      -6.45298e+00       1.96732e-04       1.23028e+02
 14.700      2.17810e+02       2.16145e+01      -6.31473e+00       1.93610e-04       1.21028e+02
 14.800      2.17733e+02       2.15703e+01      -6.16804e+00       1.90559e-04       1.19079e+02
 14.900      2.17663e+02       2.15302e+01      -6.01420e+00       1.87578e-04       1.17179e+02
 15.000      2.17599e+02       2.14926e+01      -5.85450e+00       1.84663e-04       1.15324e+02
 15.100      2.17540e+02       2.14558e+01      -5.69025e+00       1.81811e-04       1.13512e+02
 15.200      2.17485e+02       2.14180e+01      -5.52272e+00       1.79020e-04       1.11742e+02
 15.300      2.17434e+02       2.13775e+01      -5.35323e+00       1.76288e-04       1.10010e+02
 15.400      2.17385e+02       2.13326e+01      -5.18306e+00       1.73612e-04       1.08315e+02
 15.500      2.17337e+02       2.12817e+01      -5.01351e+00       1.70989e-04       1.06656e+02
 15.600      2.17290e+02       2.12230e+01      -4.84587e+00       1.68418e-04       1.05029e+02
 15.700      2.17243e+02       2.11548e+01      -4.68146e+00       1.65896e-04       1.03434e+02
 15.800      2.17195e+02       2.10754e+01      -4.52154e+00       1.63421e-04       1.01868e+02
 15.900      2.17144e+02       2.09832e+01      -4.36743e+00       1.60992e-04       1.00331e+02
 16.000      2.17091e+02       2.08765e+01      -4.22029e+00       1.58607e-04       9.88202e+01
 16.100      2.17035e+02       2.07554e+01      -4.08030e+00       1.56263e-04       9.73348e+01
 16.200      2.16976e+02       2.06207e+01      -3.94716e+00       1.53959e-04       9.58739e+01
 16.300      2.16915e+02       2.04730e+01      -3.82059e+00       1.51694e-04       9.44367e+01
 16.400      2.16852e+02       2.03131e+01      -3.70028e+00       1.49466e-04       9.30222e+01
 16.500      2.16786e+02       2.01417e+01      -3.58594e+00       1.47273e-04       9.16296e+01
 16.600      2.16718e+02       1.99596e+01      -3.47729e+00       1.45114e-04       9.02582e+01
 16.700      2.16649e+02       1.97674e+01      -3.37402e+00       1.42988e-04       8.89072e+01
 16.800      2.16579e+02       1.95659e+01      -3.27585e+00       1.40892e-04       8.75759e+01
 16.900      2.16507e+02       1.93559e+01      -3.18247e+00       1.38827e-04       8.62636e+01
 17.000      2.16434e+02       1.91380e+01      -3.09359e+00       1.36791e-04       8.49696e+01
 17.100      2.16360e+02       1.89130e+01      -3.00893e+00       1.34782e-04       8.36933e+01
 17.200      2.16286e+02       1.86816e+01      -2.92818e+00       1.32800e-04       8.24340e+01
 17.300      2.16211e+02       1.84446e+01      -2.85105e+00       1.30843e-04       8.11912e+01
 17.400      2.16136e+02       1.82026e+01      -2.77725e+00       1.28910e-04       7.99643e+01
 17.500      2.16061e+02       1.79564e+01      -2.70648e+00       1.27001e-04       7.87528e+01
 17.600      2.15986e+02       1.77067e+01      -2.63845e+00       1.25115e-04       7.75562e+01
 17.700      2.15912e+02       1.74543e+01      -2.57287e+00       1.23250e-04       7.63739e+01
 17.800      2.15839e+02       1.71999e+01      -2.50943e+00       1.21406e-04       7.52056e+01
 17.900      2.15766e+02       1.69441e+01      -2.44786e+00       1.19582e-04       7.40507e+01
 18.000      2.15694e+02       1.66879e+01      -2.38785e+00       1.17777e-04       7.29089e+01
 18.100      2.15624e+02       1.64317e+01      -2.32910e+00       1.15991e-04       7.17797e+01
 18.200      2.15555e+02       1.61765e+01      -2.27133e+00       1.14222e-04       7.06628e+01
 18.300      2.15488e+02       1.59229e+01      -2.21425e+00       1.12471e-04       6.95578e+01
 18.400      2.15422e+02       1.56714e+01      -2.15771e+00       1.10737e-04       6.84646e+01
 18.500      2.15359e+02       1.54220e+01      -2.10175e+00       1.09021e-04       6.73838e+01
 18.600      2.15296e+02       1.51751e+01      -2.04643e+00       1.07324e-04       6.63155e+01
 18.700      2.15235e+02       1.49305e+01      -1.99181e+00       1.05646e-04       6.52602e+01
 18.800      2.15176e+02       1.46885e+01      -1.93795e+00       1.03988e-04       6.42183e+01
 18.900      2.15117e+02       1.44492e+01      -1.88490e+00       1.02351e-04       6.31899e+01
 19.000      2.15059e+02       1.42127e+01      -1.83272e+00       1.00734e-04       6.21753e+01
 19.100      2.15002e+02       1.39791e+01      -1.78147e+00       9.91398e-05       6.11749e+01
 19.200      2.14946e+02       1.37484e+01      -1.73120e+00       9.75672e-05       6.01888e+01
 19.300      2.14890e+02       1.35210e+01      -1.68198e+00       9.60171e-05       5.92172e+01
 19.400      2.14835e+02       1.32967e+01      -1.63385e+00       9.44899e-05       5.82602e+01
 19.500      2.14780e+02       1.30758e+01      -1.58688e+00       9.29858e-05       5.73181e+01
 19.600      2.14725e+02       1.28584e+01      -1.54112e+00       9.15053e-05       5.63910e+01
 19.700      2.14669e+02       1.26446e+01      -1.49663e+00       9.00484e-05       5.54789e+01
 19.800      2.14614e+02       1.24344e+01      -1.45347e+00       8.86156e-05       5.45820e+01
 19.900      2.14558e+02       1.22281e+01      -1.41169e+00       8.72068e-05       5.37003e+01
 20.000      2.14502e+02       1.20257e+01      -1.37135e+00       8.58224e-05       5.28339e+01
 20.100      2.14445e+02       1.18273e+01      -1.33251e+00       8.44624e-05       5.19829e+01
 20.200      2.14387e+02       1.16331e+01      -1.29522e+00       8.31270e-05       5.11472e+01
 20.300      2.14328e+02       1.14432e+01      -1.25955e+00       8.18162e-05       5.03269e+01
