# Data Source: NASA GEOS5 Near-Real-Time
# Model Time = 2010-12-10 18:00:00
# Location = [  39.7393, -104.9900 ]
# Fields = [ Z(km), T(K), U(m/s), V(m/s), R(g/cm3), P(mbar) ]
# Ground Height = 1.589
  0.000      2.93590e+02       2.69046e+00       1.09917e+00       1.19495e-03       1.00687e+03
  0.100      2.92968e+02       2.66329e+00       1.09195e+00       1.18351e-03       9.95116e+02
  0.200      2.92339e+02       2.63548e+00       1.09280e+00       1.17220e-03       9.83491e+02
  0.300      2.91687e+02       2.60554e+00       1.12085e+00       1.16107e-03       9.71980e+02
  0.400      2.91018e+02       2.57769e+00       1.17194e+00       1.15008e-03       9.60575e+02
  0.500      2.90375e+02       2.56677e+00       1.19828e+00       1.13908e-03       9.49282e+02
  0.600      2.89784e+02       2.58075e+00       1.17107e+00       1.12797e-03       9.38108e+02
  0.700      2.89205e+02       2.60094e+00       1.14007e+00       1.11691e-03       9.27051e+02
  0.800      2.88587e+02       2.60897e+00       1.16062e+00       1.10609e-03       9.16109e+02
  0.900      2.87908e+02       2.62752e+00       1.21253e+00       1.09558e-03       9.05275e+02
  1.000      2.87162e+02       2.69337e+00       1.24472e+00       1.08541e-03       8.94546e+02
  1.100      2.86378e+02       2.76403e+00       1.24317e+00       1.07545e-03       8.83920e+02
  1.200      2.85619e+02       2.71972e+00       1.23019e+00       1.06548e-03       8.73402e+02
  1.300      2.84931e+02       2.51501e+00       1.23208e+00       1.05532e-03       8.62994e+02
  1.400      2.84310e+02       2.30236e+00       1.28147e+00       1.04501e-03       8.52694e+02
  1.500      2.83743e+02       2.25068e+00       1.40600e+00       1.03458e-03       8.42499e+02
  1.600      2.83208e+02       2.39577e+00       1.57882e+00       1.02412e-03       8.32411e+02
  1.700      2.82679e+02       2.70226e+00       1.74422e+00       1.01374e-03       8.22434e+02
  1.800      2.82122e+02       3.12249e+00       1.86710e+00       1.00355e-03       8.12568e+02
  1.900      2.81492e+02       3.58678e+00       1.95208e+00       9.93711e-04       8.02801e+02
  2.000      2.80748e+02       4.02817e+00       2.00644e+00       9.84335e-04       7.93125e+02
  2.100      2.79915e+02       4.43125e+00       2.01977e+00       9.75329e-04       7.83535e+02
  2.200      2.79054e+02       4.81006e+00       1.97155e+00       9.66476e-04       7.74036e+02
  2.300      2.78213e+02       5.17844e+00       1.85518e+00       9.57617e-04       7.64629e+02
  2.400      2.77388e+02       5.54850e+00       1.70559e+00       9.48759e-04       7.55311e+02
  2.500      2.76569e+02       5.93257e+00       1.56399e+00       9.39936e-04       7.46079e+02
  2.600      2.75754e+02       6.36093e+00       1.42746e+00       9.31157e-04       7.36931e+02
  2.700      2.74950e+02       6.88562e+00       1.23941e+00       9.22395e-04       7.27868e+02
  2.800      2.74166e+02       7.55363e+00       9.45161e-01       9.13628e-04       7.18893e+02
  2.900      2.73398e+02       8.34158e+00       5.46386e-01       9.04863e-04       7.10003e+02
  3.000      2.72639e+02       9.18246e+00       7.97195e-02       8.96131e-04       7.01199e+02
  3.100      2.71881e+02       1.00154e+01      -4.21075e-01       8.87456e-04       6.92481e+02
  3.200      2.71127e+02       1.08204e+01      -9.42791e-01       8.78831e-04       6.83848e+02
  3.300      2.70380e+02       1.15930e+01      -1.47991e+00       8.70241e-04       6.75299e+02
  3.400      2.69647e+02       1.23268e+01      -2.02712e+00       8.61668e-04       6.66835e+02
  3.500      2.68935e+02       1.30076e+01      -2.57984e+00       8.53093e-04       6.58454e+02
  3.600      2.68249e+02       1.36189e+01      -3.13370e+00       8.44495e-04       6.50156e+02
  3.700      2.67595e+02       1.41495e+01      -3.68482e+00       8.35864e-04       6.41941e+02
  3.800      2.66960e+02       1.46111e+01      -4.23134e+00       8.27239e-04       6.33811e+02
  3.900      2.66330e+02       1.50212e+01      -4.77195e+00       8.18670e-04       6.25765e+02
  4.000      2.65692e+02       1.53959e+01      -5.30356e+00       8.10199e-04       6.17805e+02
  4.100      2.65035e+02       1.57451e+01      -5.81352e+00       8.01850e-04       6.09928e+02
  4.200      2.64355e+02       1.60761e+01      -6.28607e+00       7.93637e-04       6.02131e+02
  4.300      2.63645e+02       1.63972e+01      -6.70685e+00       7.85569e-04       5.94409e+02
  4.400      2.62911e+02       1.67223e+01      -7.07522e+00       7.77628e-04       5.86764e+02
  4.500      2.62166e+02       1.70688e+01      -7.39810e+00       7.69779e-04       5.79195e+02
  4.600      2.61421e+02       1.74537e+01      -7.68238e+00       7.61989e-04       5.71704e+02
  4.700      2.60685e+02       1.78835e+01      -7.93183e+00       7.54235e-04       5.64292e+02
  4.800      2.59958e+02       1.83526e+01      -8.14657e+00       7.46511e-04       5.56957e+02
  4.900      2.59245e+02       1.88546e+01      -8.32653e+00       7.38810e-04       5.49699e+02
  5.000      2.58546e+02       1.93808e+01      -8.47211e+00       7.31130e-04       5.42517e+02
  5.100      2.57855e+02       1.99147e+01      -8.58545e+00       7.23482e-04       5.35409e+02
  5.200      2.57169e+02       2.04384e+01      -8.66905e+00       7.15883e-04       5.28375e+02
  5.300      2.56480e+02       2.09339e+01      -8.72533e+00       7.08346e-04       5.21411e+02
  5.400      2.55786e+02       2.13934e+01      -8.75481e+00       7.00876e-04       5.14518e+02
  5.500      2.55089e+02       2.18183e+01      -8.75618e+00       6.93475e-04       5.07697e+02
  5.600      2.54389e+02       2.22104e+01      -8.72807e+00       6.86138e-04       5.00947e+02
  5.700      2.53688e+02       2.25716e+01      -8.67049e+00       6.78866e-04       4.94271e+02
  5.800      2.52982e+02       2.29041e+01      -8.59188e+00       6.71664e-04       4.87667e+02
  5.900      2.52269e+02       2.32104e+01      -8.50391e+00       6.64538e-04       4.81135e+02
  6.000      2.51547e+02       2.34928e+01      -8.41825e+00       6.57497e-04       4.74673e+02
  6.100      2.50813e+02       2.37553e+01      -8.34776e+00       6.50543e-04       4.68282e+02
  6.200      2.50067e+02       2.40066e+01      -8.30931e+00       6.43673e-04       4.61960e+02
  6.300      2.49310e+02       2.42567e+01      -8.32068e+00       6.36884e-04       4.55703e+02
  6.400      2.48542e+02       2.45156e+01      -8.39964e+00       6.30169e-04       4.49510e+02
  6.500      2.47764e+02       2.47910e+01      -8.55831e+00       6.23527e-04       4.43380e+02
  6.600      2.46976e+02       2.50845e+01      -8.79113e+00       6.16957e-04       4.37312e+02
  6.700      2.46177e+02       2.53964e+01      -9.08903e+00       6.10462e-04       4.31309e+02
  6.800      2.45368e+02       2.57269e+01      -9.44296e+00       6.04041e-04       4.25370e+02
  6.900      2.44550e+02       2.60766e+01      -9.84435e+00       5.97695e-04       4.19497e+02
  7.000      2.43722e+02       2.64470e+01      -1.02872e+01       5.91419e-04       4.13687e+02
  7.100      2.42888e+02       2.68402e+01      -1.07661e+01       5.85204e-04       4.07939e+02
  7.200      2.42049e+02       2.72582e+01      -1.12759e+01       5.79045e-04       4.02251e+02
  7.300      2.41207e+02       2.77025e+01      -1.18113e+01       5.72933e-04       3.96622e+02
  7.400      2.40365e+02       2.81688e+01      -1.23687e+01       5.66866e-04       3.91051e+02
  7.500      2.39522e+02       2.86486e+01      -1.29456e+01       5.60841e-04       3.85538e+02
  7.600      2.38680e+02       2.91330e+01      -1.35397e+01       5.54856e-04       3.80083e+02
  7.700      2.37841e+02       2.96131e+01      -1.41485e+01       5.48908e-04       3.74687e+02
  7.800      2.37005e+02       3.00823e+01      -1.47687e+01       5.42996e-04       3.69349e+02
  7.900      2.36174e+02       3.05409e+01      -1.53941e+01       5.37119e-04       3.64069e+02
  8.000      2.35347e+02       3.09908e+01      -1.60175e+01       5.31274e-04       3.58847e+02
  8.100      2.34526e+02       3.14337e+01      -1.66321e+01       5.25461e-04       3.53683e+02
  8.200      2.33712e+02       3.18715e+01      -1.72310e+01       5.19679e-04       3.48576e+02
  8.300      2.32904e+02       3.23048e+01      -1.78145e+01       5.13927e-04       3.43527e+02
  8.400      2.32100e+02       3.27322e+01      -1.83961e+01       5.08211e-04       3.38534e+02
  8.500      2.31298e+02       3.31520e+01      -1.89904e+01       5.02536e-04       3.33596e+02
  8.600      2.30495e+02       3.35626e+01      -1.96121e+01       4.96905e-04       3.28714e+02
  8.700      2.29690e+02       3.39623e+01      -2.02758e+01       4.91324e-04       3.23886e+02
  8.800      2.28882e+02       3.43461e+01      -2.09827e+01       4.85791e-04       3.19112e+02
  8.900      2.28078e+02       3.47030e+01      -2.17066e+01       4.80294e-04       3.14392e+02
  9.000      2.27282e+02       3.50209e+01      -2.24180e+01       4.74820e-04       3.09725e+02
  9.100      2.26503e+02       3.52877e+01      -2.30872e+01       4.69358e-04       3.05113e+02
  9.200      2.25746e+02       3.54915e+01      -2.36848e+01       4.63895e-04       3.00553e+02
  9.300      2.25016e+02       3.56236e+01      -2.41873e+01       4.58421e-04       2.96047e+02
  9.400      2.24313e+02       3.56954e+01      -2.46077e+01       4.52943e-04       2.91595e+02
  9.500      2.23632e+02       3.57255e+01      -2.49717e+01       4.47467e-04       2.87195e+02
  9.600      2.22971e+02       3.57322e+01      -2.53054e+01       4.42005e-04       2.82850e+02
  9.700      2.22325e+02       3.57342e+01      -2.56344e+01       4.36563e-04       2.78558e+02
  9.800      2.21691e+02       3.57499e+01      -2.59848e+01       4.31150e-04       2.74321e+02
  9.900      2.21067e+02       3.57916e+01      -2.63715e+01       4.25773e-04       2.70137e+02
 10.000      2.20449e+02       3.58560e+01      -2.67832e+01       4.20436e-04       2.66006e+02
 10.100      2.19837e+02       3.59376e+01      -2.72041e+01       4.15142e-04       2.61926e+02
 10.200      2.19228e+02       3.60308e+01      -2.76189e+01       4.09894e-04       2.57898e+02
 10.300      2.18620e+02       3.61300e+01      -2.80118e+01       4.04694e-04       2.53921e+02
 10.400      2.18011e+02       3.62295e+01      -2.83672e+01       3.99546e-04       2.49992e+02
 10.500      2.17401e+02       3.63258e+01      -2.86705e+01       3.94449e-04       2.46113e+02
 10.600      2.16798e+02       3.64225e+01      -2.89098e+01       3.89391e-04       2.42283e+02
 10.700      2.16210e+02       3.65252e+01      -2.90742e+01       3.84357e-04       2.38502e+02
 10.800      2.15647e+02       3.66397e+01      -2.91526e+01       3.79332e-04       2.34771e+02
 10.900      2.15118e+02       3.67715e+01      -2.91342e+01       3.74302e-04       2.31090e+02
 11.000      2.14632e+02       3.69262e+01      -2.90079e+01       3.69256e-04       2.27459e+02
 11.100      2.14198e+02       3.71093e+01      -2.87629e+01       3.64179e-04       2.23878e+02
 11.200      2.13821e+02       3.73158e+01      -2.83972e+01       3.59069e-04       2.20348e+02
 11.300      2.13498e+02       3.75235e+01      -2.79234e+01       3.53933e-04       2.16869e+02
 11.400      2.13225e+02       3.77087e+01      -2.73555e+01       3.48783e-04       2.13439e+02
 11.500      2.12998e+02       3.78476e+01      -2.67072e+01       3.43626e-04       2.10060e+02
 11.600      2.12814e+02       3.79166e+01      -2.59925e+01       3.38473e-04       2.06731e+02
 11.700      2.12669e+02       3.78919e+01      -2.52253e+01       3.33331e-04       2.03452e+02
 11.800      2.12559e+02       3.77497e+01      -2.44195e+01       3.28209e-04       2.00222e+02
 11.900      2.12481e+02       3.74736e+01      -2.35881e+01       3.23115e-04       1.97042e+02
 12.000      2.12431e+02       3.70818e+01      -2.27391e+01       3.18055e-04       1.93911e+02
 12.100      2.12406e+02       3.66039e+01      -2.18792e+01       3.13036e-04       1.90829e+02
 12.200      2.12403e+02       3.60691e+01      -2.10153e+01       3.08064e-04       1.87795e+02
 12.300      2.12418e+02       3.55067e+01      -2.01538e+01       3.03144e-04       1.84809e+02
 12.400      2.12448e+02       3.49461e+01      -1.93017e+01       2.98282e-04       1.81870e+02
 12.500      2.12490e+02       3.44165e+01      -1.84655e+01       2.93482e-04       1.78979e+02
 12.600      2.12540e+02       3.39473e+01      -1.76519e+01       2.88750e-04       1.76134e+02
 12.700      2.12595e+02       3.35660e+01      -1.68676e+01       2.84088e-04       1.73336e+02
 12.800      2.12653e+02       3.32755e+01      -1.61192e+01       2.79500e-04       1.70583e+02
 12.900      2.12712e+02       3.30591e+01      -1.54132e+01       2.74988e-04       1.67875e+02
 13.000      2.12770e+02       3.28994e+01      -1.47560e+01       2.70551e-04       1.65212e+02
 13.100      2.12827e+02       3.27792e+01      -1.41541e+01       2.66192e-04       1.62593e+02
 13.200      2.12879e+02       3.26815e+01      -1.36140e+01       2.61911e-04       1.60017e+02
 13.300      2.12925e+02       3.25888e+01      -1.31421e+01       2.57709e-04       1.57484e+02
 13.400      2.12964e+02       3.24841e+01      -1.27449e+01       2.53586e-04       1.54994e+02
 13.500      2.12995e+02       3.23501e+01      -1.24288e+01       2.49543e-04       1.52544e+02
 13.600      2.13014e+02       3.21696e+01      -1.22004e+01       2.45581e-04       1.50136e+02
 13.700      2.13021e+02       3.19288e+01      -1.20630e+01       2.41700e-04       1.47768e+02
 13.800      2.13017e+02       3.16309e+01      -1.20058e+01       2.37894e-04       1.45439e+02
 13.900      2.13002e+02       3.12839e+01      -1.20137e+01       2.34162e-04       1.43147e+02
 14.000      2.12977e+02       3.08958e+01      -1.20715e+01       2.30497e-04       1.40890e+02
 14.100      2.12943e+02       3.04746e+01      -1.21642e+01       2.26897e-04       1.38668e+02
 14.200      2.12901e+02       3.00284e+01      -1.22764e+01       2.23358e-04       1.36477e+02
 14.300      2.12852e+02       2.95651e+01      -1.23932e+01       2.19875e-04       1.34318e+02
 14.400      2.12796e+02       2.90928e+01      -1.24993e+01       2.16447e-04       1.32189e+02
 14.500      2.12734e+02       2.86195e+01      -1.25797e+01       2.13069e-04       1.30088e+02
 14.600      2.12668e+02       2.81532e+01      -1.26192e+01       2.09738e-04       1.28015e+02
 14.700      2.12598e+02       2.77020e+01      -1.26027e+01       2.06452e-04       1.25968e+02
 14.800      2.12524e+02       2.72736e+01      -1.25156e+01       2.03208e-04       1.23946e+02
 14.900      2.12449e+02       2.68703e+01      -1.23547e+01       2.00006e-04       1.21949e+02
 15.000      2.12372e+02       2.64895e+01      -1.21275e+01       1.96846e-04       1.19979e+02
 15.100      2.12296e+02       2.61282e+01      -1.18421e+01       1.93729e-04       1.18037e+02
 15.200      2.12219e+02       2.57834e+01      -1.15064e+01       1.90657e-04       1.16124e+02
 15.300      2.12145e+02       2.54522e+01      -1.11283e+01       1.87631e-04       1.14240e+02
 15.400      2.12073e+02       2.51316e+01      -1.07158e+01       1.84651e-04       1.12388e+02
 15.500      2.12004e+02       2.48188e+01      -1.02770e+01       1.81718e-04       1.10567e+02
 15.600      2.11940e+02       2.45108e+01      -9.81973e+00       1.78832e-04       1.08778e+02
 15.700      2.11881e+02       2.42046e+01      -9.35201e+00       1.75995e-04       1.07022e+02
 15.800      2.11829e+02       2.38972e+01      -8.88179e+00       1.73206e-04       1.05300e+02
 15.900      2.11783e+02       2.35859e+01      -8.41706e+00       1.70467e-04       1.03613e+02
 16.000      2.11746e+02       2.32675e+01      -7.96578e+00       1.67777e-04       1.01960e+02
 16.100      2.11718e+02       2.29392e+01      -7.53592e+00       1.65137e-04       1.00342e+02
 16.200      2.11699e+02       2.25983e+01      -7.13469e+00       1.62546e-04       9.87595e+01
 16.300      2.11691e+02       2.22447e+01      -6.76341e+00       1.60004e-04       9.72112e+01
 16.400      2.11692e+02       2.18791e+01      -6.42063e+00       1.57509e-04       9.56954e+01
 16.500      2.11701e+02       2.15025e+01      -6.10491e+00       1.55058e-04       9.42105e+01
 16.600      2.11720e+02       2.11158e+01      -5.81481e+00       1.52649e-04       9.27551e+01
 16.700      2.11746e+02       2.07198e+01      -5.54887e+00       1.50282e-04       9.13278e+01
 16.800      2.11780e+02       2.03155e+01      -5.30566e+00       1.47953e-04       8.99270e+01
 16.900      2.11820e+02       1.99038e+01      -5.08371e+00       1.45662e-04       8.85515e+01
 17.000      2.11868e+02       1.94855e+01      -4.88159e+00       1.43407e-04       8.72001e+01
 17.100      2.11922e+02       1.90615e+01      -4.69783e+00       1.41186e-04       8.58715e+01
 17.200      2.11981e+02       1.86328e+01      -4.53100e+00       1.38998e-04       8.45645e+01
 17.300      2.12046e+02       1.82001e+01      -4.37965e+00       1.36842e-04       8.32782e+01
 17.400      2.12115e+02       1.77645e+01      -4.24232e+00       1.34717e-04       8.20114e+01
 17.500      2.12189e+02       1.73268e+01      -4.11758e+00       1.32620e-04       8.07632e+01
 17.600      2.12266e+02       1.68879e+01      -4.00396e+00       1.30551e-04       7.95325e+01
 17.700      2.12347e+02       1.64487e+01      -3.90002e+00       1.28510e-04       7.83185e+01
 17.800      2.12432e+02       1.60101e+01      -3.80433e+00       1.26494e-04       7.71204e+01
 17.900      2.12518e+02       1.55729e+01      -3.71541e+00       1.24502e-04       7.59373e+01
 18.000      2.12607e+02       1.51381e+01      -3.63184e+00       1.22535e-04       7.47684e+01
 18.100      2.12697e+02       1.47066e+01      -3.55215e+00       1.20590e-04       7.36130e+01
 18.200      2.12788e+02       1.42792e+01      -3.47490e+00       1.18667e-04       7.24704e+01
 18.300      2.12881e+02       1.38569e+01      -3.39865e+00       1.16766e-04       7.13400e+01
 18.400      2.12973e+02       1.34405e+01      -3.32194e+00       1.14884e-04       7.02210e+01
 18.500      2.13065e+02       1.30309e+01      -3.24347e+00       1.13023e-04       6.91131e+01
 18.600      2.13157e+02       1.26285e+01      -3.16296e+00       1.11182e-04       6.80165e+01
 18.700      2.13248e+02       1.22336e+01      -3.08062e+00       1.09362e-04       6.69318e+01
 18.800      2.13338e+02       1.18465e+01      -2.99663e+00       1.07564e-04       6.58594e+01
 18.900      2.13427e+02       1.14675e+01      -2.91120e+00       1.05789e-04       6.47999e+01
 19.000      2.13515e+02       1.10967e+01      -2.82452e+00       1.04038e-04       6.37536e+01
 19.100      2.13602e+02       1.07346e+01      -2.73679e+00       1.02312e-04       6.27210e+01
 19.200      2.13686e+02       1.03814e+01      -2.64820e+00       1.00611e-04       6.17025e+01
 19.300      2.13769e+02       1.00374e+01      -2.55895e+00       9.89350e-05       6.06984e+01
 19.400      2.13850e+02       9.70277e+00      -2.46924e+00       9.72856e-05       5.97090e+01
 19.500      2.13929e+02       9.37788e+00      -2.37926e+00       9.56628e-05       5.87346e+01
 19.600      2.14005e+02       9.06298e+00      -2.28921e+00       9.40672e-05       5.77755e+01
 19.700      2.14079e+02       8.75835e+00      -2.19929e+00       9.24990e-05       5.68319e+01
 19.800      2.14149e+02       8.46427e+00      -2.10969e+00       9.09587e-05       5.59040e+01
 19.900      2.14217e+02       8.18102e+00      -2.02061e+00       8.94465e-05       5.49920e+01
 20.000      2.14282e+02       7.90886e+00      -1.93225e+00       8.79625e-05       5.40959e+01
 20.100      2.14343e+02       7.64808e+00      -1.84479e+00       8.65070e-05       5.32160e+01
 20.200      2.14400e+02       7.39895e+00      -1.75845e+00       8.50803e-05       5.23524e+01
 20.300      2.14454e+02       7.16175e+00      -1.67341e+00       8.36823e-05       5.15051e+01
