# Data Source: NASA GEOS5 Near-Real-Time
# Model Time = 2010-06-22 18:00:00
# Location = [  39.7393, -104.9900 ]
# Fields = [ Z(km), T(K), U(m/s), V(m/s), R(g/cm3), P(mbar) ]
# Ground Height = 1.589
  0.000      3.11455e+02       1.20317e+00       3.03607e+00       1.13091e-03       1.01090e+03
  0.100      3.10832e+02       1.18613e+00       3.04610e+00       1.11995e-03       9.99097e+02
  0.200      3.10207e+02       1.16909e+00       3.05721e+00       1.10911e-03       9.87436e+02
  0.300      3.09572e+02       1.15210e+00       3.08360e+00       1.09843e-03       9.75921e+02
  0.400      3.08921e+02       1.13499e+00       3.13135e+00       1.08793e-03       9.64558e+02
  0.500      3.08269e+02       1.11651e+00       3.16542e+00       1.07755e-03       9.53344e+02
  0.600      3.07640e+02       1.09586e+00       3.14341e+00       1.06722e-03       9.42274e+02
  0.700      3.07018e+02       1.08080e+00       3.08225e+00       1.05698e-03       9.31349e+02
  0.800      3.06373e+02       1.08383e+00       3.03313e+00       1.04695e-03       9.20572e+02
  0.900      3.05699e+02       1.10591e+00       3.01676e+00       1.03714e-03       9.09940e+02
  1.000      3.05023e+02       1.13348e+00       3.01500e+00       1.02744e-03       8.99439e+02
  1.100      3.04368e+02       1.15319e+00       3.00898e+00       1.01777e-03       8.89059e+02
  1.200      3.03739e+02       1.15549e+00       2.98586e+00       1.00812e-03       8.78811e+02
  1.300      3.03133e+02       1.13231e+00       2.93607e+00       9.98520e-04       8.68705e+02
  1.400      3.02519e+02       1.08444e+00       2.87712e+00       9.89069e-04       8.58740e+02
  1.500      3.01846e+02       1.01904e+00       2.84603e+00       9.79924e-04       8.48905e+02
  1.600      3.01080e+02       9.48352e-01       2.87309e+00       9.71176e-04       8.39192e+02
  1.700      3.00243e+02       8.98698e-01       2.96802e+00       9.62743e-04       8.29592e+02
  1.800      2.99366e+02       8.98437e-01       3.13605e+00       9.54515e-04       8.20100e+02
  1.900      2.98482e+02       9.65644e-01       3.36452e+00       9.46378e-04       8.10708e+02
  2.000      2.97628e+02       1.10857e+00       3.62369e+00       9.38211e-04       8.01412e+02
  2.100      2.96831e+02       1.33445e+00       3.88383e+00       9.29922e-04       7.92206e+02
  2.200      2.96078e+02       1.64646e+00       4.11934e+00       9.21556e-04       7.83088e+02
  2.300      2.95338e+02       2.04621e+00       4.30628e+00       9.13215e-04       7.74058e+02
  2.400      2.94584e+02       2.52327e+00       4.43242e+00       9.04975e-04       7.65116e+02
  2.500      2.93812e+02       3.03207e+00       4.51983e+00       8.96855e-04       7.56263e+02
  2.600      2.93018e+02       3.52093e+00       4.59675e+00       8.88863e-04       7.47500e+02
  2.700      2.92198e+02       3.96310e+00       4.68792e+00       8.81012e-04       7.38825e+02
  2.800      2.91343e+02       4.37571e+00       4.81183e+00       8.73324e-04       7.30233e+02
  2.900      2.90443e+02       4.78009e+00       4.98581e+00       8.65819e-04       7.21722e+02
  3.000      2.89502e+02       5.18645e+00       5.20519e+00       8.58482e-04       7.13288e+02
  3.100      2.88540e+02       5.59005e+00       5.43564e+00       8.51251e-04       7.04928e+02
  3.200      2.87577e+02       5.98531e+00       5.64105e+00       8.44059e-04       6.96642e+02
  3.300      2.86628e+02       6.37480e+00       5.79679e+00       8.36869e-04       6.88427e+02
  3.400      2.85693e+02       6.77155e+00       5.89291e+00       8.29676e-04       6.80283e+02
  3.500      2.84773e+02       7.18917e+00       5.92073e+00       8.22476e-04       6.72209e+02
  3.600      2.83868e+02       7.63620e+00       5.88679e+00       8.15274e-04       6.64206e+02
  3.700      2.82973e+02       8.11360e+00       5.82054e+00       8.08083e-04       6.56271e+02
  3.800      2.82083e+02       8.62168e+00       5.75324e+00       8.00918e-04       6.48405e+02
  3.900      2.81194e+02       9.15510e+00       5.71276e+00       7.93789e-04       6.40608e+02
  4.000      2.80308e+02       9.69602e+00       5.71940e+00       7.86691e-04       6.32880e+02
  4.100      2.79427e+02       1.02250e+01       5.79243e+00       7.79621e-04       6.25222e+02
  4.200      2.78553e+02       1.07246e+01       5.94461e+00       7.72575e-04       6.17634e+02
  4.300      2.77688e+02       1.11869e+01       6.16019e+00       7.65548e-04       6.10116e+02
  4.400      2.76834e+02       1.16063e+01       6.41562e+00       7.58537e-04       6.02667e+02
  4.500      2.75991e+02       1.19777e+01       6.68868e+00       7.51537e-04       5.95287e+02
  4.600      2.75158e+02       1.23011e+01       6.97382e+00       7.44552e-04       5.87976e+02
  4.700      2.74334e+02       1.25799e+01       7.27707e+00       7.37590e-04       5.80732e+02
  4.800      2.73514e+02       1.28177e+01       7.60466e+00       7.30656e-04       5.73555e+02
  4.900      2.72696e+02       1.30179e+01       7.95418e+00       7.23764e-04       5.66445e+02
  5.000      2.71870e+02       1.31842e+01       8.30410e+00       7.16935e-04       5.59401e+02
  5.100      2.71027e+02       1.33202e+01       8.63034e+00       7.10193e-04       5.52423e+02
  5.200      2.70160e+02       1.34302e+01       8.91083e+00       7.03558e-04       5.45511e+02
  5.300      2.69270e+02       1.35262e+01       9.14847e+00       6.97025e-04       5.38665e+02
  5.400      2.68365e+02       1.36255e+01       9.36300e+00       6.90571e-04       5.31883e+02
  5.500      2.67452e+02       1.37453e+01       9.57449e+00       6.84175e-04       5.25164e+02
  5.600      2.66539e+02       1.39039e+01       9.80156e+00       6.77817e-04       5.18507e+02
  5.700      2.65631e+02       1.41233e+01       1.00567e+01       6.71482e-04       5.11913e+02
  5.800      2.64734e+02       1.44265e+01       1.03509e+01       6.65160e-04       5.05380e+02
  5.900      2.63850e+02       1.48363e+01       1.06949e+01       6.58841e-04       4.98908e+02
  6.000      2.62988e+02       1.53691e+01       1.11079e+01       6.52508e-04       4.92497e+02
  6.100      2.62157e+02       1.60248e+01       1.16292e+01       6.46139e-04       4.86149e+02
  6.200      2.61368e+02       1.68009e+01       1.23011e+01       6.39710e-04       4.79864e+02
  6.300      2.60633e+02       1.76947e+01       1.31657e+01       6.33198e-04       4.73643e+02
  6.400      2.59956e+02       1.86873e+01       1.42330e+01       6.26597e-04       4.67487e+02
  6.500      2.59325e+02       1.97249e+01       1.54452e+01       6.19939e-04       4.61397e+02
  6.600      2.58724e+02       2.07495e+01       1.67359e+01       6.13262e-04       4.55371e+02
  6.700      2.58142e+02       2.17030e+01       1.80387e+01       6.06599e-04       4.49409e+02
  6.800      2.57564e+02       2.25414e+01       1.92965e+01       5.99981e-04       4.43511e+02
  6.900      2.56983e+02       2.32627e+01       2.04801e+01       5.93427e-04       4.37677e+02
  7.000      2.56393e+02       2.38727e+01       2.15656e+01       5.86951e-04       4.31906e+02
  7.100      2.55786e+02       2.43773e+01       2.25288e+01       5.80569e-04       4.26200e+02
  7.200      2.55158e+02       2.47818e+01       2.33512e+01       5.74293e-04       4.20556e+02
  7.300      2.54508e+02       2.50886e+01       2.40544e+01       5.68117e-04       4.14975e+02
  7.400      2.53844e+02       2.52985e+01       2.46792e+01       5.62027e-04       4.09454e+02
  7.500      2.53168e+02       2.54125e+01       2.52663e+01       5.56008e-04       4.03992e+02
  7.600      2.52488e+02       2.54316e+01       2.58561e+01       5.50048e-04       3.98587e+02
  7.700      2.51805e+02       2.53685e+01       2.64707e+01       5.44137e-04       3.93238e+02
  7.800      2.51124e+02       2.52585e+01       2.70973e+01       5.38271e-04       3.87946e+02
  7.900      2.50445e+02       2.51394e+01       2.77191e+01       5.32446e-04       3.82710e+02
  8.000      2.49771e+02       2.50488e+01       2.83195e+01       5.26660e-04       3.77532e+02
  8.100      2.49103e+02       2.50235e+01       2.88822e+01       5.20909e-04       3.72412e+02
  8.200      2.48444e+02       2.50831e+01       2.94018e+01       5.15192e-04       3.67349e+02
  8.300      2.47794e+02       2.52297e+01       2.98834e+01       5.09504e-04       3.62343e+02
  8.400      2.47155e+02       2.54649e+01       3.03324e+01       5.03842e-04       3.57393e+02
  8.500      2.46529e+02       2.57901e+01       3.07545e+01       4.98204e-04       3.52498e+02
  8.600      2.45916e+02       2.62058e+01       3.11554e+01       4.92588e-04       3.47658e+02
  8.700      2.45315e+02       2.66850e+01       3.15470e+01       4.86997e-04       3.42872e+02
  8.800      2.44718e+02       2.71728e+01       3.19474e+01       4.81446e-04       3.38140e+02
  8.900      2.44121e+02       2.76125e+01       3.23751e+01       4.75947e-04       3.33461e+02
  9.000      2.43515e+02       2.79478e+01       3.28486e+01       4.70513e-04       3.28836e+02
  9.100      2.42896e+02       2.81221e+01       3.33864e+01       4.65154e-04       3.24264e+02
  9.200      2.42259e+02       2.81081e+01       3.39926e+01       4.59877e-04       3.19745e+02
  9.300      2.41609e+02       2.79503e+01       3.46366e+01       4.54671e-04       3.15277e+02
  9.400      2.40951e+02       2.77043e+01       3.52823e+01       4.49527e-04       3.10861e+02
  9.500      2.40290e+02       2.74257e+01       3.58935e+01       4.44432e-04       3.06495e+02
  9.600      2.39633e+02       2.71700e+01       3.64342e+01       4.39377e-04       3.02179e+02
  9.700      2.38983e+02       2.69914e+01       3.68693e+01       4.34351e-04       2.97913e+02
  9.800      2.38341e+02       2.69116e+01       3.71917e+01       4.29354e-04       2.93695e+02
  9.900      2.37704e+02       2.69189e+01       3.74227e+01       4.24393e-04       2.89525e+02
 10.000      2.37066e+02       2.69998e+01       3.75848e+01       4.19477e-04       2.85404e+02
 10.100      2.36424e+02       2.71413e+01       3.77006e+01       4.14612e-04       2.81330e+02
 10.200      2.35773e+02       2.73300e+01       3.77928e+01       4.09806e-04       2.77304e+02
 10.300      2.35109e+02       2.75527e+01       3.78834e+01       4.05067e-04       2.73324e+02
 10.400      2.34428e+02       2.77971e+01       3.79800e+01       4.00397e-04       2.69391e+02
 10.500      2.33729e+02       2.80526e+01       3.80724e+01       3.95799e-04       2.65503e+02
 10.600      2.33010e+02       2.83082e+01       3.81491e+01       3.91273e-04       2.61660e+02
 10.700      2.32269e+02       2.85531e+01       3.81988e+01       3.86821e-04       2.57860e+02
 10.800      2.31505e+02       2.87767e+01       3.82102e+01       3.82444e-04       2.54103e+02
 10.900      2.30716e+02       2.89681e+01       3.81719e+01       3.78141e-04       2.50388e+02
 11.000      2.29901e+02       2.91195e+01       3.80752e+01       3.73913e-04       2.46714e+02
 11.100      2.29068e+02       2.92403e+01       3.79261e+01       3.69748e-04       2.43081e+02
 11.200      2.28223e+02       2.93453e+01       3.77359e+01       3.65632e-04       2.39490e+02
 11.300      2.27378e+02       2.94494e+01       3.75157e+01       3.61550e-04       2.35938e+02
 11.400      2.26539e+02       2.95678e+01       3.72766e+01       3.57490e-04       2.32428e+02
 11.500      2.25715e+02       2.97152e+01       3.70298e+01       3.53437e-04       2.28958e+02
 11.600      2.24917e+02       2.99067e+01       3.67865e+01       3.49379e-04       2.25528e+02
 11.700      2.24149e+02       3.01542e+01       3.65564e+01       3.45306e-04       2.22139e+02
 11.800      2.23414e+02       3.04499e+01       3.63405e+01       3.41220e-04       2.18789e+02
 11.900      2.22707e+02       3.07781e+01       3.61361e+01       3.37125e-04       2.15480e+02
 12.000      2.22025e+02       3.11231e+01       3.59407e+01       3.33030e-04       2.12210e+02
 12.100      2.21365e+02       3.14695e+01       3.57518e+01       3.28939e-04       2.08980e+02
 12.200      2.20723e+02       3.18016e+01       3.55668e+01       3.24858e-04       2.05789e+02
 12.300      2.20097e+02       3.21037e+01       3.53831e+01       3.20793e-04       2.02638e+02
 12.400      2.19484e+02       3.23603e+01       3.51980e+01       3.16749e-04       1.99526e+02
 12.500      2.18880e+02       3.25595e+01       3.50046e+01       3.12731e-04       1.96453e+02
 12.600      2.18288e+02       3.26995e+01       3.47837e+01       3.08735e-04       1.93419e+02
 12.700      2.17710e+02       3.27799e+01       3.45146e+01       3.04762e-04       1.90423e+02
 12.800      2.17146e+02       3.28002e+01       3.41766e+01       3.00809e-04       1.87466e+02
 12.900      2.16599e+02       3.27602e+01       3.37488e+01       2.96874e-04       1.84548e+02
 13.000      2.16071e+02       3.26593e+01       3.32106e+01       2.92956e-04       1.81669e+02
 13.100      2.15562e+02       3.24973e+01       3.25410e+01       2.89054e-04       1.78827e+02
 13.200      2.15076e+02       3.22737e+01       3.17194e+01       2.85166e-04       1.76024e+02
 13.300      2.14614e+02       3.19885e+01       3.07277e+01       2.81291e-04       1.73259e+02
 13.400      2.14173e+02       3.16476e+01       2.95840e+01       2.77433e-04       1.70531e+02
 13.500      2.13752e+02       3.12607e+01       2.83321e+01       2.73595e-04       1.67842e+02
 13.600      2.13346e+02       3.08376e+01       2.70163e+01       2.69784e-04       1.65189e+02
 13.700      2.12953e+02       3.03884e+01       2.56810e+01       2.66003e-04       1.62574e+02
 13.800      2.12569e+02       2.99227e+01       2.43705e+01       2.62258e-04       1.59996e+02
 13.900      2.12190e+02       2.94507e+01       2.31292e+01       2.58553e-04       1.57455e+02
 14.000      2.11815e+02       2.89820e+01       2.20012e+01       2.54891e-04       1.54950e+02
 14.100      2.11438e+02       2.85266e+01       2.10311e+01       2.51277e-04       1.52482e+02
 14.200      2.11058e+02       2.80944e+01       2.02630e+01       2.47715e-04       1.50050e+02
 14.300      2.10671e+02       2.76922e+01       1.97289e+01       2.44206e-04       1.47653e+02
 14.400      2.10283e+02       2.73141e+01       1.94073e+01       2.40744e-04       1.45292e+02
 14.500      2.09898e+02       2.69505e+01       1.92625e+01       2.37321e-04       1.42964e+02
 14.600      2.09523e+02       2.65922e+01       1.92590e+01       2.33931e-04       1.40670e+02
 14.700      2.09162e+02       2.62297e+01       1.93612e+01       2.30567e-04       1.38408e+02
 14.800      2.08822e+02       2.58535e+01       1.95335e+01       2.27222e-04       1.36178e+02
 14.900      2.08509e+02       2.54544e+01       1.97402e+01       2.23889e-04       1.33980e+02
 15.000      2.08226e+02       2.50228e+01       1.99458e+01       2.20565e-04       1.31811e+02
 15.100      2.07981e+02       2.45493e+01       2.01147e+01       2.17241e-04       1.29673e+02
 15.200      2.07779e+02       2.40245e+01       2.02112e+01       2.13915e-04       1.27563e+02
 15.300      2.07626e+02       2.34391e+01       2.01998e+01       2.10581e-04       1.25482e+02
 15.400      2.07525e+02       2.27849e+01       2.00486e+01       2.07236e-04       1.23429e+02
 15.500      2.07477e+02       2.20650e+01       1.97575e+01       2.03884e-04       1.21405e+02
 15.600      2.07475e+02       2.12876e+01       1.93416e+01       2.00536e-04       1.19410e+02
 15.700      2.07515e+02       2.04612e+01       1.88162e+01       1.97199e-04       1.17446e+02
 15.800      2.07593e+02       1.95943e+01       1.81967e+01       1.93882e-04       1.15513e+02
 15.900      2.07703e+02       1.86953e+01       1.74985e+01       1.90591e-04       1.13613e+02
 16.000      2.07840e+02       1.77726e+01       1.67368e+01       1.87335e-04       1.11745e+02
 16.100      2.08000e+02       1.68346e+01       1.59270e+01       1.84119e-04       1.09912e+02
 16.200      2.08178e+02       1.58898e+01       1.50845e+01       1.80949e-04       1.08112e+02
 16.300      2.08370e+02       1.49466e+01       1.42245e+01       1.77833e-04       1.06348e+02
 16.400      2.08569e+02       1.40135e+01       1.33624e+01       1.74773e-04       1.04618e+02
 16.500      2.08772e+02       1.30988e+01       1.25135e+01       1.71777e-04       1.02924e+02
 16.600      2.08973e+02       1.22110e+01       1.16932e+01       1.68847e-04       1.01266e+02
 16.700      2.09168e+02       1.13585e+01       1.09167e+01       1.65988e-04       9.96447e+01
 16.800      2.09354e+02       1.05467e+01       1.01943e+01       1.63201e-04       9.80589e+01
 16.900      2.09531e+02       9.77488e+00       9.52507e+00       1.60484e-04       9.65075e+01
 17.000      2.09699e+02       9.04134e+00       8.90689e+00       1.57831e-04       9.49887e+01
 17.100      2.09860e+02       8.34450e+00       8.33762e+00       1.55240e-04       9.35010e+01
 17.200      2.10014e+02       7.68274e+00       7.81509e+00       1.52708e-04       9.20430e+01
 17.300      2.10161e+02       7.05445e+00       7.33717e+00       1.50230e-04       9.06132e+01
 17.400      2.10303e+02       6.45801e+00       6.90168e+00       1.47804e-04       8.92103e+01
 17.500      2.10440e+02       5.89181e+00       6.50647e+00       1.45428e-04       8.78329e+01
 17.600      2.10573e+02       5.35425e+00       6.14940e+00       1.43097e-04       8.64799e+01
 17.700      2.10702e+02       4.84370e+00       5.82829e+00       1.40810e-04       8.51499e+01
 17.800      2.10829e+02       4.35856e+00       5.54101e+00       1.38564e-04       8.38421e+01
 17.900      2.10954e+02       3.89720e+00       5.28540e+00       1.36356e-04       8.25551e+01
 18.000      2.11077e+02       3.45803e+00       5.05929e+00       1.34185e-04       8.12880e+01
 18.100      2.11200e+02       3.03942e+00       4.86053e+00       1.32047e-04       8.00398e+01
 18.200      2.11323e+02       2.63976e+00       4.68698e+00       1.29942e-04       7.88097e+01
 18.300      2.11447e+02       2.25745e+00       4.53647e+00       1.27867e-04       7.75966e+01
 18.400      2.11573e+02       1.89086e+00       4.40685e+00       1.25820e-04       7.63998e+01
 18.500      2.11701e+02       1.53838e+00       4.29597e+00       1.23800e-04       7.52184e+01
 18.600      2.11831e+02       1.19841e+00       4.20166e+00       1.21804e-04       7.40517e+01
 18.700      2.11966e+02       8.69321e-01       4.12179e+00       1.19832e-04       7.28989e+01
 18.800      2.12105e+02       5.49518e-01       4.05418e+00       1.17882e-04       7.17594e+01
 18.900      2.12249e+02       2.37373e-01       3.99669e+00       1.15952e-04       7.06324e+01
 19.000      2.12398e+02      -6.86993e-02       3.94718e+00       1.14041e-04       6.95175e+01
 19.100      2.12554e+02      -3.69566e-01       3.90422e+00       1.12149e-04       6.84145e+01
 19.200      2.12715e+02      -6.65234e-01       3.86720e+00       1.10278e-04       6.73239e+01
 19.300      2.12881e+02      -9.55659e-01       3.83555e+00       1.08428e-04       6.62462e+01
 19.400      2.13052e+02      -1.24081e+00       3.80873e+00       1.06601e-04       6.51818e+01
 19.500      2.13226e+02      -1.52064e+00       3.78618e+00       1.04796e-04       6.41312e+01
 19.600      2.13404e+02      -1.79510e+00       3.76732e+00       1.03017e-04       6.30947e+01
 19.700      2.13584e+02      -2.06416e+00       3.75161e+00       1.01262e-04       6.20726e+01
 19.800      2.13767e+02      -2.32777e+00       3.73849e+00       9.95342e-05       6.10654e+01
 19.900      2.13952e+02      -2.58590e+00       3.72739e+00       9.78325e-05       6.00732e+01
 20.000      2.14137e+02      -2.83850e+00       3.71777e+00       9.61582e-05       5.90963e+01
 20.100      2.14324e+02      -3.08553e+00       3.70905e+00       9.45118e-05       5.81350e+01
 20.200      2.14510e+02      -3.32695e+00       3.70068e+00       9.28938e-05       5.71895e+01
 20.300      2.14696e+02      -3.56271e+00       3.69210e+00       9.13047e-05       5.62599e+01
