# Data Source: NASA GEOS5 Near-Real-Time
# Model Time = 2010-09-12 18:00:00
# Location = [  39.7393, -104.9900 ]
# Fields = [ Z(km), T(K), U(m/s), V(m/s), R(g/cm3), P(mbar) ]
# Ground Height = 1.589
  0.000      3.08139e+02      -1.65080e+00       3.00279e-01       1.15147e-03       1.01831e+03
  0.100      3.07528e+02      -1.65368e+00       3.09883e-01       1.14030e-03       1.00643e+03
  0.200      3.06921e+02      -1.66007e+00       3.19256e-01       1.12921e-03       9.94682e+02
  0.300      3.06310e+02      -1.66354e+00       3.28821e-01       1.11826e-03       9.83075e+02
  0.400      3.05690e+02      -1.65782e+00       3.39015e-01       1.10747e-03       9.71620e+02
  0.500      3.05054e+02      -1.64562e+00       3.51187e-01       1.09687e-03       9.60317e+02
  0.600      3.04404e+02      -1.64507e+00       3.68250e-01       1.08644e-03       9.49153e+02
  0.700      3.03739e+02      -1.66542e+00       3.93231e-01       1.07615e-03       9.38116e+02
  0.800      3.03071e+02      -1.68282e+00       4.29032e-01       1.06599e-03       9.27214e+02
  0.900      3.02408e+02      -1.67092e+00       4.76432e-01       1.05593e-03       9.16453e+02
  1.000      3.01758e+02      -1.63384e+00       5.20440e-01       1.04594e-03       9.05830e+02
  1.100      3.01127e+02      -1.58934e+00       5.39442e-01       1.03599e-03       8.95335e+02
  1.200      3.00510e+02      -1.54844e+00       5.27783e-01       1.02609e-03       8.84967e+02
  1.300      2.99890e+02      -1.51432e+00       4.98226e-01       1.01632e-03       8.74732e+02
  1.400      2.99251e+02      -1.49093e+00       4.61340e-01       1.00673e-03       8.64632e+02
  1.500      2.98573e+02      -1.48652e+00       4.15815e-01       9.97379e-04       8.54658e+02
  1.600      2.97836e+02      -1.50979e+00       3.57733e-01       9.88315e-04       8.44801e+02
  1.700      2.97034e+02      -1.55725e+00       2.85954e-01       9.79547e-04       8.35053e+02
  1.800      2.96175e+02      -1.61415e+00       2.01909e-01       9.71046e-04       8.25409e+02
  1.900      2.95266e+02      -1.66764e+00       1.09514e-01       9.62772e-04       8.15867e+02
  2.000      2.94332e+02      -1.71547e+00       2.35355e-02       9.54643e-04       8.06418e+02
  2.100      2.93397e+02      -1.75825e+00      -3.83118e-02       9.46568e-04       7.97055e+02
  2.200      2.92481e+02      -1.78772e+00      -6.73016e-02       9.38477e-04       7.87777e+02
  2.300      2.91597e+02      -1.78117e+00      -6.93241e-02       9.30338e-04       7.78586e+02
  2.400      2.90755e+02      -1.71593e+00      -5.13208e-02       9.22128e-04       7.69485e+02
  2.500      2.89940e+02      -1.58913e+00      -1.60179e-02       9.13894e-04       7.60476e+02
  2.600      2.89118e+02      -1.41283e+00       3.70424e-02       9.05738e-04       7.51554e+02
  2.700      2.88262e+02      -1.19769e+00       1.06503e-01       8.97747e-04       7.42718e+02
  2.800      2.87370e+02      -9.41898e-01       1.78080e-01       8.89920e-04       7.33964e+02
  2.900      2.86452e+02      -6.38491e-01       2.32086e-01       8.82220e-04       7.25290e+02
  3.000      2.85520e+02      -2.83329e-01       2.53320e-01       8.74609e-04       7.16692e+02
  3.100      2.84590e+02       1.15092e-01       2.46520e-01       8.67036e-04       7.08171e+02
  3.200      2.83681e+02       5.44787e-01       2.21933e-01       8.59447e-04       6.99730e+02
  3.300      2.82806e+02       9.94562e-01       1.88407e-01       8.51801e-04       6.91367e+02
  3.400      2.81967e+02       1.45612e+00       1.49707e-01       8.44096e-04       6.83081e+02
  3.500      2.81160e+02       1.92180e+00       1.08445e-01       8.36342e-04       6.74868e+02
  3.600      2.80381e+02       2.38462e+00       6.59639e-02       8.28546e-04       6.66725e+02
  3.700      2.79626e+02       2.84002e+00       1.87769e-02       8.20726e-04       6.58655e+02
  3.800      2.78893e+02       3.28402e+00      -3.77532e-02       8.12897e-04       6.50663e+02
  3.900      2.78177e+02       3.71326e+00      -1.06770e-01       8.05079e-04       6.42750e+02
  4.000      2.77470e+02       4.12759e+00      -1.83730e-01       7.97294e-04       6.34915e+02
  4.100      2.76761e+02       4.52784e+00      -2.61629e-01       7.89568e-04       6.27157e+02
  4.200      2.76044e+02       4.91581e+00      -3.33504e-01       7.81921e-04       6.19473e+02
  4.300      2.75321e+02       5.30217e+00      -3.92796e-01       7.74343e-04       6.11863e+02
  4.400      2.74602e+02       5.70257e+00      -4.33175e-01       7.66807e-04       6.04327e+02
  4.500      2.73899e+02       6.13247e+00      -4.48417e-01       7.59284e-04       5.96866e+02
  4.600      2.73218e+02       6.59861e+00      -4.35904e-01       7.51758e-04       5.89480e+02
  4.700      2.72559e+02       7.09703e+00      -3.97439e-01       7.44225e-04       5.82167e+02
  4.800      2.71926e+02       7.62311e+00      -3.35102e-01       7.36681e-04       5.74926e+02
  4.900      2.71317e+02       8.17027e+00      -2.51606e-01       7.29128e-04       5.67757e+02
  5.000      2.70723e+02       8.72436e+00      -1.52135e-01       7.21594e-04       5.60661e+02
  5.100      2.70134e+02       9.26936e+00      -4.24747e-02       7.14110e-04       5.53638e+02
  5.200      2.69538e+02       9.78953e+00       7.17354e-02       7.06708e-04       5.46690e+02
  5.300      2.68930e+02       1.02757e+01       1.88494e-01       6.99398e-04       5.39816e+02
  5.400      2.68313e+02       1.07258e+01       3.09657e-01       6.92174e-04       5.33014e+02
  5.500      2.67688e+02       1.11380e+01       4.37269e-01       6.85028e-04       5.26282e+02
  5.600      2.67057e+02       1.15113e+01       5.72368e-01       6.77952e-04       5.19619e+02
  5.700      2.66424e+02       1.18496e+01       7.08770e-01       6.70938e-04       5.13024e+02
  5.800      2.65792e+02       1.21595e+01       8.37130e-01       6.63975e-04       5.06496e+02
  5.900      2.65165e+02       1.24473e+01       9.48088e-01       6.57054e-04       5.00034e+02
  6.000      2.64545e+02       1.27197e+01       1.03450e+00       6.50171e-04       4.93639e+02
  6.100      2.63929e+02       1.29846e+01       1.09823e+00       6.43333e-04       4.87310e+02
  6.200      2.63313e+02       1.32500e+01       1.14341e+00       6.36554e-04       4.81049e+02
  6.300      2.62691e+02       1.35241e+01       1.17421e+00       6.29846e-04       4.74856e+02
  6.400      2.62061e+02       1.38130e+01       1.19564e+00       6.23217e-04       4.68731e+02
  6.500      2.61422e+02       1.41157e+01       1.21601e+00       6.16664e-04       4.62672e+02
  6.600      2.60776e+02       1.44292e+01       1.24437e+00       6.10184e-04       4.56678e+02
  6.700      2.60122e+02       1.47509e+01       1.28980e+00       6.03771e-04       4.50745e+02
  6.800      2.59463e+02       1.50788e+01       1.35981e+00       5.97418e-04       4.44874e+02
  6.900      2.58803e+02       1.54167e+01       1.45275e+00       5.91118e-04       4.39062e+02
  7.000      2.58146e+02       1.57701e+01       1.56370e+00       5.84860e-04       4.33311e+02
  7.100      2.57497e+02       1.61449e+01       1.68768e+00       5.78634e-04       4.27621e+02
  7.200      2.56861e+02       1.65466e+01       1.81986e+00       5.72431e-04       4.21992e+02
  7.300      2.56241e+02       1.69796e+01       1.95721e+00       5.66247e-04       4.16424e+02
  7.400      2.55636e+02       1.74473e+01       2.09841e+00       5.60082e-04       4.10918e+02
  7.500      2.55047e+02       1.79528e+01       2.24218e+00       5.53936e-04       4.05473e+02
  7.600      2.54475e+02       1.84993e+01       2.38726e+00       5.47811e-04       4.00089e+02
  7.700      2.53917e+02       1.90880e+01       2.53205e+00       5.41709e-04       3.94767e+02
  7.800      2.53371e+02       1.97107e+01       2.67355e+00       5.35640e-04       3.89504e+02
  7.900      2.52830e+02       2.03569e+01       2.80838e+00       5.29616e-04       3.84301e+02
  8.000      2.52287e+02       2.10161e+01       2.93317e+00       5.23650e-04       3.79156e+02
  8.100      2.51738e+02       2.16776e+01       3.04458e+00       5.17751e-04       3.74068e+02
  8.200      2.51175e+02       2.23299e+01       3.14372e+00       5.11932e-04       3.69038e+02
  8.300      2.50594e+02       2.29583e+01       3.24214e+00       5.06203e-04       3.64063e+02
  8.400      2.49988e+02       2.35477e+01       3.35287e+00       5.00573e-04       3.59144e+02
  8.500      2.49351e+02       2.40831e+01       3.48896e+00       4.95054e-04       3.54279e+02
  8.600      2.48678e+02       2.45496e+01       3.66343e+00       4.89654e-04       3.49468e+02
  8.700      2.47964e+02       2.49368e+01       3.88373e+00       4.84376e-04       3.44710e+02
  8.800      2.47217e+02       2.52482e+01       4.14119e+00       4.79207e-04       3.40004e+02
  8.900      2.46444e+02       2.54896e+01       4.42428e+00       4.74129e-04       3.35348e+02
  9.000      2.45651e+02       2.56669e+01       4.72147e+00       4.69125e-04       3.30742e+02
  9.100      2.44847e+02       2.57858e+01       5.02123e+00       4.64180e-04       3.26185e+02
  9.200      2.44039e+02       2.58529e+01       5.31262e+00       4.59280e-04       3.21676e+02
  9.300      2.43231e+02       2.58806e+01       5.59015e+00       4.54414e-04       3.17214e+02
  9.400      2.42426e+02       2.58845e+01       5.85119e+00       4.49578e-04       3.12799e+02
  9.500      2.41626e+02       2.58803e+01       6.09316e+00       4.44766e-04       3.08431e+02
  9.600      2.40836e+02       2.58836e+01       6.31347e+00       4.39974e-04       3.04110e+02
  9.700      2.40058e+02       2.59100e+01       6.50954e+00       4.35196e-04       2.99836e+02
  9.800      2.39293e+02       2.59729e+01       6.68105e+00       4.30431e-04       2.95608e+02
  9.900      2.38540e+02       2.60783e+01       6.83589e+00       4.25683e-04       2.91427e+02
 10.000      2.37794e+02       2.62299e+01       6.98372e+00       4.20959e-04       2.87292e+02
 10.100      2.37052e+02       2.64320e+01       7.13423e+00       4.16266e-04       2.83203e+02
 10.200      2.36311e+02       2.66885e+01       7.29709e+00       4.11611e-04       2.79160e+02
 10.300      2.35566e+02       2.70034e+01       7.48199e+00       4.06999e-04       2.75162e+02
 10.400      2.34816e+02       2.73793e+01       7.69648e+00       4.02436e-04       2.71210e+02
 10.500      2.34060e+02       2.78118e+01       7.93847e+00       3.97919e-04       2.67303e+02
 10.600      2.33300e+02       2.82949e+01       8.20316e+00       3.93446e-04       2.63441e+02
 10.700      2.32537e+02       2.88221e+01       8.48575e+00       3.89015e-04       2.59621e+02
 10.800      2.31773e+02       2.93874e+01       8.78144e+00       3.84621e-04       2.55845e+02
 10.900      2.31007e+02       2.99845e+01       9.08542e+00       3.80263e-04       2.52111e+02
 11.000      2.30243e+02       3.06072e+01       9.39285e+00       3.75939e-04       2.48419e+02
 11.100      2.29481e+02       3.12490e+01       9.69761e+00       3.71644e-04       2.44768e+02
 11.200      2.28724e+02       3.19032e+01       9.99198e+00       3.67374e-04       2.41159e+02
 11.300      2.27976e+02       3.25632e+01       1.02682e+01       3.63127e-04       2.37591e+02
 11.400      2.27239e+02       3.32220e+01       1.05185e+01       3.58899e-04       2.34065e+02
 11.500      2.26517e+02       3.38731e+01       1.07351e+01       3.54685e-04       2.30582e+02
 11.600      2.25811e+02       3.45096e+01       1.09102e+01       3.50482e-04       2.27140e+02
 11.700      2.25125e+02       3.51248e+01       1.10361e+01       3.46288e-04       2.23740e+02
 11.800      2.24457e+02       3.57099e+01       1.11080e+01       3.42106e-04       2.20382e+02
 11.900      2.23799e+02       3.62531e+01       1.11252e+01       3.37947e-04       2.17065e+02
 12.000      2.23142e+02       3.67425e+01       1.10873e+01       3.33825e-04       2.13788e+02
 12.100      2.22479e+02       3.71663e+01       1.09940e+01       3.29750e-04       2.10550e+02
 12.200      2.21800e+02       3.75125e+01       1.08447e+01       3.25734e-04       2.07351e+02
 12.300      2.21097e+02       3.77693e+01       1.06392e+01       3.21789e-04       2.04191e+02
 12.400      2.20361e+02       3.79246e+01       1.03770e+01       3.17925e-04       2.01067e+02
 12.500      2.19586e+02       3.79676e+01       1.00583e+01       3.14150e-04       1.97981e+02
 12.600      2.18776e+02       3.78989e+01       9.69018e+00       3.10456e-04       1.94931e+02
 12.700      2.17945e+02       3.77267e+01       9.28424e+00       3.06822e-04       1.91917e+02
 12.800      2.17107e+02       3.74595e+01       8.85220e+00       3.03228e-04       1.88940e+02
 12.900      2.16276e+02       3.71058e+01       8.40579e+00       2.99653e-04       1.85998e+02
 13.000      2.15465e+02       3.66739e+01       7.95671e+00       2.96081e-04       1.83092e+02
 13.100      2.14690e+02       3.61723e+01       7.51667e+00       2.92491e-04       1.80221e+02
 13.200      2.13964e+02       3.56094e+01       7.09739e+00       2.88866e-04       1.77386e+02
 13.300      2.13300e+02       3.49937e+01       6.71058e+00       2.85191e-04       1.74585e+02
 13.400      2.12707e+02       3.43329e+01       6.36385e+00       2.81455e-04       1.71820e+02
 13.500      2.12179e+02       3.36335e+01       6.05427e+00       2.77673e-04       1.69090e+02
 13.600      2.11708e+02       3.29015e+01       5.77723e+00       2.73857e-04       1.66396e+02
 13.700      2.11286e+02       3.21430e+01       5.52814e+00       2.70024e-04       1.63740e+02
 13.800      2.10904e+02       3.13640e+01       5.30238e+00       2.66187e-04       1.61121e+02
 13.900      2.10554e+02       3.05706e+01       5.09536e+00       2.62358e-04       1.58540e+02
 14.000      2.10228e+02       2.97690e+01       4.90245e+00       2.58552e-04       1.55998e+02
 14.100      2.09917e+02       2.89651e+01       4.71906e+00       2.54779e-04       1.53495e+02
 14.200      2.09614e+02       2.81651e+01       4.54059e+00       2.51052e-04       1.51031e+02
 14.300      2.09310e+02       2.73748e+01       4.36261e+00       2.47380e-04       1.48607e+02
 14.400      2.09004e+02       2.65968e+01       4.18393e+00       2.43766e-04       1.46221e+02
 14.500      2.08695e+02       2.58309e+01       4.00597e+00       2.40205e-04       1.43872e+02
 14.600      2.08386e+02       2.50766e+01       3.83023e+00       2.36691e-04       1.41558e+02
 14.700      2.08080e+02       2.43337e+01       3.65821e+00       2.33221e-04       1.39277e+02
 14.800      2.07777e+02       2.36019e+01       3.49141e+00       2.29789e-04       1.37028e+02
 14.900      2.07479e+02       2.28808e+01       3.33132e+00       2.26392e-04       1.34809e+02
 15.000      2.07188e+02       2.21702e+01       3.17944e+00       2.23026e-04       1.32618e+02
 15.100      2.06906e+02       2.14698e+01       3.03728e+00       2.19688e-04       1.30455e+02
 15.200      2.06634e+02       2.07791e+01       2.90633e+00       2.16373e-04       1.28318e+02
 15.300      2.06374e+02       2.00980e+01       2.78809e+00       2.13078e-04       1.26205e+02
 15.400      2.06129e+02       1.94260e+01       2.68403e+00       2.09801e-04       1.24116e+02
 15.500      2.05898e+02       1.87632e+01       2.59436e+00       2.06542e-04       1.22051e+02
 15.600      2.05683e+02       1.81095e+01       2.51779e+00       2.03303e-04       1.20012e+02
 15.700      2.05484e+02       1.74653e+01       2.45295e+00       2.00089e-04       1.18000e+02
 15.800      2.05302e+02       1.68306e+01       2.39845e+00       1.96901e-04       1.16017e+02
 15.900      2.05137e+02       1.62055e+01       2.35290e+00       1.93744e-04       1.14065e+02
 16.000      2.04990e+02       1.55904e+01       2.31493e+00       1.90619e-04       1.12145e+02
 16.100      2.04862e+02       1.49852e+01       2.28316e+00       1.87530e-04       1.10259e+02
 16.200      2.04753e+02       1.43902e+01       2.25620e+00       1.84478e-04       1.08407e+02
 16.300      2.04663e+02       1.38055e+01       2.23267e+00       1.81467e-04       1.06590e+02
 16.400      2.04593e+02       1.32313e+01       2.21119e+00       1.78497e-04       1.04810e+02
 16.500      2.04544e+02       1.26677e+01       2.19037e+00       1.75572e-04       1.03068e+02
 16.600      2.04516e+02       1.21149e+01       2.16884e+00       1.72692e-04       1.01364e+02
 16.700      2.04510e+02       1.15730e+01       2.14522e+00       1.69859e-04       9.96981e+01
 16.800      2.04527e+02       1.10422e+01       2.11854e+00       1.67075e-04       9.80716e+01
 16.900      2.04564e+02       1.05226e+01       2.08885e+00       1.64337e-04       9.64820e+01
 17.000      2.04622e+02       1.00143e+01       2.05632e+00       1.61644e-04       9.49278e+01
 17.100      2.04701e+02       9.51751e+00       2.02112e+00       1.58993e-04       9.34072e+01
 17.200      2.04798e+02       9.03234e+00       1.98345e+00       1.56385e-04       9.19185e+01
 17.300      2.04914e+02       8.55891e+00       1.94348e+00       1.53817e-04       9.04600e+01
 17.400      2.05048e+02       8.09735e+00       1.90137e+00       1.51287e-04       8.90304e+01
 17.500      2.05199e+02       7.64779e+00       1.85732e+00       1.48794e-04       8.76281e+01
 17.600      2.05366e+02       7.21036e+00       1.81150e+00       1.46338e-04       8.62518e+01
 17.700      2.05549e+02       6.78519e+00       1.76409e+00       1.43917e-04       8.49002e+01
 17.800      2.05747e+02       6.37243e+00       1.71527e+00       1.41529e-04       8.35720e+01
 17.900      2.05959e+02       5.97219e+00       1.66521e+00       1.39174e-04       8.22660e+01
 18.000      2.06185e+02       5.58460e+00       1.61409e+00       1.36850e-04       8.09810e+01
 18.100      2.06424e+02       5.20981e+00       1.56210e+00       1.34556e-04       7.97160e+01
 18.200      2.06674e+02       4.84793e+00       1.50940e+00       1.32293e-04       7.84700e+01
 18.300      2.06936e+02       4.49911e+00       1.45618e+00       1.30057e-04       7.72420e+01
 18.400      2.07209e+02       4.16347e+00       1.40261e+00       1.27850e-04       7.60310e+01
 18.500      2.07491e+02       3.84115e+00       1.34888e+00       1.25669e-04       7.48361e+01
 18.600      2.07783e+02       3.53227e+00       1.29516e+00       1.23515e-04       7.36566e+01
 18.700      2.08083e+02       3.23696e+00       1.24162e+00       1.21386e-04       7.24915e+01
 18.800      2.08391e+02       2.95537e+00       1.18846e+00       1.19281e-04       7.13402e+01
 18.900      2.08706e+02       2.68762e+00       1.13584e+00       1.17201e-04       7.02019e+01
 19.000      2.09028e+02       2.43376e+00       1.08394e+00       1.15144e-04       6.90761e+01
 19.100      2.09355e+02       2.19338e+00       1.03291e+00       1.13112e-04       6.79629e+01
 19.200      2.09686e+02       1.96586e+00       9.82920e-01       1.11105e-04       6.68630e+01
 19.300      2.10021e+02       1.75055e+00       9.34110e-01       1.09126e-04       6.57767e+01
 19.400      2.10359e+02       1.54684e+00       8.86632e-01       1.07175e-04       6.47046e+01
 19.500      2.10698e+02       1.35409e+00       8.40637e-01       1.05253e-04       6.36470e+01
 19.600      2.11038e+02       1.17168e+00       7.96277e-01       1.03362e-04       6.26043e+01
 19.700      2.11378e+02       9.98977e-01       7.53704e-01       1.01502e-04       6.15768e+01
 19.800      2.11716e+02       8.35357e-01       7.13069e-01       9.96748e-05       6.05650e+01
 19.900      2.12053e+02       6.80184e-01       6.74521e-01       9.78799e-05       5.95689e+01
 20.000      2.12386e+02       5.32835e-01       6.38213e-01       9.61184e-05       5.85889e+01
 20.100      2.12716e+02       3.92681e-01       6.04296e-01       9.43909e-05       5.76252e+01
 20.200      2.13041e+02       2.59093e-01       5.72922e-01       9.26979e-05       5.66780e+01
 20.300      2.13360e+02       1.31446e-01       5.44241e-01       9.10397e-05       5.57475e+01
