# Data Source: NASA GEOS5 Near-Real-Time
# Model Time = 2010-09-28 18:00:00
# Location = [  39.7393, -104.9900 ]
# Fields = [ Z(km), T(K), U(m/s), V(m/s), R(g/cm3), P(mbar) ]
# Ground Height = 1.589
  0.000      3.12221e+02       2.56276e-02       4.22683e-01       1.13101e-03       1.01347e+03
  0.100      3.11558e+02       2.06471e-02       4.30972e-01       1.12021e-03       1.00166e+03
  0.200      3.10895e+02       1.47754e-02       4.40590e-01       1.10952e-03       9.89987e+02
  0.300      3.10230e+02       1.43135e-02       4.42145e-01       1.09895e-03       9.78460e+02
  0.400      3.09564e+02       2.43891e-02       4.27738e-01       1.08851e-03       9.67085e+02
  0.500      3.08903e+02       3.78998e-02       4.05019e-01       1.07817e-03       9.55858e+02
  0.600      3.08259e+02       4.09288e-02       3.90375e-01       1.06789e-03       9.44769e+02
  0.700      3.07626e+02       3.13688e-02       3.87203e-01       1.05769e-03       9.33819e+02
  0.800      3.06979e+02       1.98679e-02       3.84852e-01       1.04766e-03       9.23017e+02
  0.900      3.06305e+02       1.47206e-02       3.75894e-01       1.03785e-03       9.12365e+02
  1.000      3.05622e+02       1.72784e-02       3.62004e-01       1.02818e-03       9.01856e+02
  1.100      3.04952e+02       2.58536e-02       3.46055e-01       1.01859e-03       8.91480e+02
  1.200      3.04299e+02       2.46169e-02       3.30224e-01       1.00904e-03       8.81233e+02
  1.300      3.03663e+02      -7.78083e-03       3.16250e-01       9.99546e-04       8.71118e+02
  1.400      3.03028e+02      -7.41418e-02       2.99658e-01       9.90163e-04       8.61134e+02
  1.500      3.02354e+02      -1.52196e-01       2.67591e-01       9.81015e-04       8.51283e+02
  1.600      3.01610e+02      -2.21106e-01       2.07828e-01       9.72203e-04       8.41560e+02
  1.700      3.00803e+02      -2.79117e-01       1.15466e-01       9.63687e-04       8.31956e+02
  1.800      2.99954e+02      -3.31458e-01      -1.17438e-02       9.55380e-04       8.22456e+02
  1.900      2.99085e+02      -3.78224e-01      -1.80881e-01       9.47197e-04       8.13048e+02
  2.000      2.98218e+02      -4.10022e-01      -4.07935e-01       9.39065e-04       8.03733e+02
  2.100      2.97376e+02      -4.16752e-01      -7.08216e-01       9.30915e-04       7.94508e+02
  2.200      2.96564e+02      -3.93163e-01      -1.07213e+00       9.22732e-04       7.85373e+02
  2.300      2.95773e+02      -3.37769e-01      -1.47075e+00       9.14546e-04       7.76329e+02
  2.400      2.94994e+02      -2.49313e-01      -1.87499e+00       9.06386e-04       7.67375e+02
  2.500      2.94213e+02      -1.27357e-01      -2.25804e+00       8.98294e-04       7.58512e+02
  2.600      2.93417e+02       2.82194e-02      -2.59399e+00       8.90313e-04       7.49739e+02
  2.700      2.92594e+02       2.16103e-01      -2.86479e+00       8.82477e-04       7.41054e+02
  2.800      2.91742e+02       4.29742e-01      -3.08128e+00       8.74781e-04       7.32453e+02
  2.900      2.90863e+02       6.61392e-01      -3.26089e+00       8.67213e-04       7.23930e+02
  3.000      2.89964e+02       9.05783e-01      -3.41989e+00       8.59750e-04       7.15481e+02
  3.100      2.89061e+02       1.16447e+00      -3.57132e+00       8.52340e-04       7.07106e+02
  3.200      2.88176e+02       1.44018e+00      -3.72769e+00       8.44926e-04       6.98808e+02
  3.300      2.87319e+02       1.73083e+00      -3.89748e+00       8.37474e-04       6.90587e+02
  3.400      2.86486e+02       2.02187e+00      -4.07857e+00       8.30003e-04       6.82441e+02
  3.500      2.85665e+02       2.29674e+00      -4.26716e+00       8.22541e-04       6.74366e+02
  3.600      2.84848e+02       2.54365e+00      -4.45750e+00       8.15106e-04       6.66360e+02
  3.700      2.84037e+02       2.76603e+00      -4.63769e+00       8.07701e-04       6.58426e+02
  3.800      2.83233e+02       2.97029e+00      -4.79463e+00       8.00321e-04       6.50563e+02
  3.900      2.82438e+02       3.16116e+00      -4.91736e+00       7.92964e-04       6.42774e+02
  4.000      2.81651e+02       3.33512e+00      -5.00556e+00       7.85634e-04       6.35058e+02
  4.100      2.80869e+02       3.48609e+00      -5.06224e+00       7.78338e-04       6.27414e+02
  4.200      2.80092e+02       3.60841e+00      -5.09023e+00       7.71078e-04       6.19842e+02
  4.300      2.79325e+02       3.70102e+00      -5.09042e+00       7.63838e-04       6.12341e+02
  4.400      2.78580e+02       3.76570e+00      -5.06249e+00       7.56586e-04       6.04910e+02
  4.500      2.77870e+02       3.80429e+00      -5.00615e+00       7.49292e-04       5.97550e+02
  4.600      2.77199e+02       3.81873e+00      -4.92239e+00       7.41942e-04       5.90261e+02
  4.700      2.76564e+02       3.81111e+00      -4.81418e+00       7.34553e-04       5.83043e+02
  4.800      2.75960e+02       3.78354e+00      -4.68469e+00       7.27139e-04       5.75898e+02
  4.900      2.75383e+02       3.73835e+00      -4.53773e+00       7.19716e-04       5.68827e+02
  5.000      2.74827e+02       3.67926e+00      -4.38097e+00       7.12300e-04       5.61829e+02
  5.100      2.74287e+02       3.61048e+00      -4.22351e+00       7.04904e-04       5.54903e+02
  5.200      2.73757e+02       3.53622e+00      -4.07443e+00       6.97543e-04       5.48048e+02
  5.300      2.73233e+02       3.46244e+00      -3.94273e+00       6.90229e-04       5.41262e+02
  5.400      2.72713e+02       3.39811e+00      -3.83730e+00       6.82967e-04       5.34548e+02
  5.500      2.72194e+02       3.35252e+00      -3.76702e+00       6.75764e-04       5.27904e+02
  5.600      2.71674e+02       3.33474e+00      -3.74033e+00       6.68626e-04       5.21330e+02
  5.700      2.71150e+02       3.35036e+00      -3.75784e+00       6.61562e-04       5.14827e+02
  5.800      2.70615e+02       3.40199e+00      -3.81351e+00       6.54584e-04       5.08393e+02
  5.900      2.70066e+02       3.49212e+00      -3.90105e+00       6.47702e-04       5.02027e+02
  6.000      2.69496e+02       3.62260e+00      -4.01422e+00       6.40926e-04       4.95727e+02
  6.100      2.68902e+02       3.78790e+00      -4.14718e+00       6.34265e-04       4.89493e+02
  6.200      2.68281e+02       3.97794e+00      -4.29429e+00       6.27721e-04       4.83324e+02
  6.300      2.67629e+02       4.18253e+00      -4.44994e+00       6.21301e-04       4.77218e+02
  6.400      2.66944e+02       4.39160e+00      -4.60852e+00       6.15008e-04       4.71175e+02
  6.500      2.66227e+02       4.59633e+00      -4.76448e+00       6.08836e-04       4.65194e+02
  6.600      2.65482e+02       4.78876e+00      -4.91235e+00       6.02772e-04       4.59272e+02
  6.700      2.64714e+02       4.96097e+00      -5.04663e+00       5.96803e-04       4.53409e+02
  6.800      2.63927e+02       5.10511e+00      -5.16196e+00       5.90918e-04       4.47603e+02
  6.900      2.63126e+02       5.21693e+00      -5.25689e+00       5.85106e-04       4.41855e+02
  7.000      2.62314e+02       5.29664e+00      -5.33490e+00       5.79356e-04       4.36162e+02
  7.100      2.61495e+02       5.34471e+00      -5.39978e+00       5.73659e-04       4.30526e+02
  7.200      2.60675e+02       5.36165e+00      -5.45533e+00       5.68006e-04       4.24946e+02
  7.300      2.59856e+02       5.34920e+00      -5.50541e+00       5.62390e-04       4.19422e+02
  7.400      2.59038e+02       5.31402e+00      -5.55417e+00       5.56809e-04       4.13953e+02
  7.500      2.58221e+02       5.26397e+00      -5.60581e+00       5.51265e-04       4.08539e+02
  7.600      2.57404e+02       5.20688e+00      -5.66457e+00       5.45758e-04       4.03179e+02
  7.700      2.56588e+02       5.15058e+00      -5.73462e+00       5.40289e-04       3.97872e+02
  7.800      2.55770e+02       5.10086e+00      -5.81892e+00       5.34860e-04       3.92619e+02
  7.900      2.54950e+02       5.06097e+00      -5.91887e+00       5.29472e-04       3.87418e+02
  8.000      2.54126e+02       5.03399e+00      -6.03576e+00       5.24130e-04       3.82269e+02
  8.100      2.53297e+02       5.02299e+00      -6.17088e+00       5.18834e-04       3.77173e+02
  8.200      2.52462e+02       5.03082e+00      -6.32539e+00       5.13588e-04       3.72128e+02
  8.300      2.51621e+02       5.05663e+00      -6.49864e+00       5.08390e-04       3.67135e+02
  8.400      2.50775e+02       5.09649e+00      -6.68841e+00       5.03237e-04       3.62193e+02
  8.500      2.49926e+02       5.14634e+00      -6.89246e+00       4.98127e-04       3.57301e+02
  8.600      2.49076e+02       5.20215e+00      -7.10853e+00       4.93055e-04       3.52459e+02
  8.700      2.48224e+02       5.25998e+00      -7.33437e+00       4.88020e-04       3.47667e+02
  8.800      2.47373e+02       5.31777e+00      -7.56767e+00       4.83017e-04       3.42924e+02
  8.900      2.46524e+02       5.37546e+00      -7.80604e+00       4.78046e-04       3.38229e+02
  9.000      2.45677e+02       5.43310e+00      -8.04709e+00       4.73104e-04       3.33583e+02
  9.100      2.44835e+02       5.49070e+00      -8.28844e+00       4.68190e-04       3.28985e+02
  9.200      2.43997e+02       5.54829e+00      -8.52771e+00       4.63300e-04       3.24435e+02
  9.300      2.43164e+02       5.60428e+00      -8.76424e+00       4.58434e-04       3.19932e+02
  9.400      2.42339e+02       5.65260e+00      -9.00215e+00       4.53589e-04       3.15477e+02
  9.500      2.41521e+02       5.68640e+00      -9.24638e+00       4.48766e-04       3.11069e+02
  9.600      2.40712e+02       5.69884e+00      -9.50185e+00       4.43961e-04       3.06707e+02
  9.700      2.39912e+02       5.68308e+00      -9.77350e+00       4.39176e-04       3.02394e+02
  9.800      2.39124e+02       5.63245e+00      -1.00662e+01       4.34406e-04       2.98127e+02
  9.900      2.38345e+02       5.54584e+00      -1.03841e+01       4.29657e-04       2.93907e+02
 10.000      2.37573e+02       5.42859e+00      -1.07302e+01       4.24933e-04       2.89734e+02
 10.100      2.36803e+02       5.28641e+00      -1.11074e+01       4.20241e-04       2.85606e+02
 10.200      2.36033e+02       5.12503e+00      -1.15188e+01       4.15587e-04       2.81525e+02
 10.300      2.35258e+02       4.95017e+00      -1.19673e+01       4.10977e-04       2.77488e+02
 10.400      2.34476e+02       4.76754e+00      -1.24558e+01       4.06417e-04       2.73496e+02
 10.500      2.33684e+02       4.58331e+00      -1.29809e+01       4.01908e-04       2.69549e+02
 10.600      2.32884e+02       4.40425e+00      -1.35306e+01       3.97449e-04       2.65646e+02
 10.700      2.32076e+02       4.23715e+00      -1.40922e+01       3.93039e-04       2.61786e+02
 10.800      2.31261e+02       4.08882e+00      -1.46531e+01       3.88674e-04       2.57970e+02
 10.900      2.30439e+02       3.96605e+00      -1.52006e+01       3.84352e-04       2.54196e+02
 11.000      2.29613e+02       3.87566e+00      -1.57222e+01       3.80072e-04       2.50463e+02
 11.100      2.28782e+02       3.82315e+00      -1.62065e+01       3.75833e-04       2.46773e+02
 11.200      2.27947e+02       3.80646e+00      -1.66498e+01       3.71631e-04       2.43124e+02
 11.300      2.27108e+02       3.82079e+00      -1.70513e+01       3.67467e-04       2.39515e+02
 11.400      2.26267e+02       3.86134e+00      -1.74102e+01       3.63340e-04       2.35947e+02
 11.500      2.25422e+02       3.92330e+00      -1.77258e+01       3.59247e-04       2.32420e+02
 11.600      2.24576e+02       4.00187e+00      -1.79970e+01       3.55189e-04       2.28931e+02
 11.700      2.23728e+02       4.09224e+00      -1.82231e+01       3.51165e-04       2.25482e+02
 11.800      2.22878e+02       4.18964e+00      -1.84029e+01       3.47172e-04       2.22072e+02
 11.900      2.22029e+02       4.28934e+00      -1.85326e+01       3.43210e-04       2.18701e+02
 12.000      2.21181e+02       4.38665e+00      -1.86075e+01       3.39275e-04       2.15368e+02
 12.100      2.20337e+02       4.47690e+00      -1.86230e+01       3.35366e-04       2.12074e+02
 12.200      2.19497e+02       4.55539e+00      -1.85745e+01       3.31480e-04       2.08818e+02
 12.300      2.18665e+02       4.61745e+00      -1.84571e+01       3.27615e-04       2.05601e+02
 12.400      2.17841e+02       4.65838e+00      -1.82664e+01       3.23769e-04       2.02422e+02
 12.500      2.17027e+02       4.67351e+00      -1.79976e+01       3.19940e-04       1.99281e+02
 12.600      2.16226e+02       4.66034e+00      -1.76507e+01       3.16125e-04       1.96177e+02
 12.700      2.15442e+02       4.62075e+00      -1.72356e+01       3.12317e-04       1.93112e+02
 12.800      2.14680e+02       4.55720e+00      -1.67631e+01       3.08512e-04       1.90084e+02
 12.900      2.13944e+02       4.47213e+00      -1.62441e+01       3.04703e-04       1.87093e+02
 13.000      2.13238e+02       4.36798e+00      -1.56895e+01       3.00885e-04       1.84140e+02
 13.100      2.12568e+02       4.24719e+00      -1.51102e+01       2.97053e-04       1.81224e+02
 13.200      2.11938e+02       4.11222e+00      -1.45171e+01       2.93203e-04       1.78344e+02
 13.300      2.11352e+02       3.96550e+00      -1.39211e+01       2.89329e-04       1.75502e+02
 13.400      2.10815e+02       3.80944e+00      -1.33330e+01       2.85429e-04       1.72696e+02
 13.500      2.10321e+02       3.64616e+00      -1.27625e+01       2.81511e-04       1.69926e+02
 13.600      2.09867e+02       3.47766e+00      -1.22189e+01       2.77586e-04       1.67195e+02
 13.700      2.09445e+02       3.30594e+00      -1.17117e+01       2.73664e-04       1.64501e+02
 13.800      2.09049e+02       3.13301e+00      -1.12500e+01       2.69757e-04       1.61846e+02
 13.900      2.08673e+02       2.96087e+00      -1.08433e+01       2.65875e-04       1.59230e+02
 14.000      2.08311e+02       2.79151e+00      -1.05009e+01       2.62026e-04       1.56653e+02
 14.100      2.07957e+02       2.62694e+00      -1.02321e+01       2.58221e-04       1.54116e+02
 14.200      2.07605e+02       2.46917e+00      -1.00463e+01       2.54468e-04       1.51619e+02
 14.300      2.07248e+02       2.32016e+00      -9.95253e+00       2.50775e-04       1.49161e+02
 14.400      2.06884e+02       2.18023e+00      -9.95077e+00       2.47144e-04       1.46743e+02
 14.500      2.06517e+02       2.04723e+00      -1.00268e+01       2.43567e-04       1.44363e+02
 14.600      2.06150e+02       1.91877e+00      -1.01651e+01       2.40037e-04       1.42018e+02
 14.700      2.05787e+02       1.79247e+00      -1.03504e+01       2.36548e-04       1.39707e+02
 14.800      2.05432e+02       1.66597e+00      -1.05673e+01       2.33092e-04       1.37429e+02
 14.900      2.05089e+02       1.53689e+00      -1.08004e+01       2.29663e-04       1.35181e+02
 15.000      2.04761e+02       1.40285e+00      -1.10343e+01       2.26256e-04       1.32962e+02
 15.100      2.04453e+02       1.26148e+00      -1.12537e+01       2.22864e-04       1.30772e+02
 15.200      2.04167e+02       1.11039e+00      -1.14430e+01       2.19482e-04       1.28608e+02
 15.300      2.03909e+02       9.47229e-01      -1.15870e+01       2.16105e-04       1.26469e+02
 15.400      2.03682e+02       7.69629e-01      -1.16704e+01       2.12728e-04       1.24354e+02
 15.500      2.03487e+02       5.76955e-01      -1.16857e+01       2.09352e-04       1.22263e+02
 15.600      2.03323e+02       3.71422e-01      -1.16385e+01       2.05983e-04       1.20199e+02
 15.700      2.03189e+02       1.55519e-01      -1.15358e+01       2.02626e-04       1.18162e+02
 15.800      2.03082e+02      -6.82726e-02      -1.13844e+01       1.99289e-04       1.16155e+02
 15.900      2.03001e+02      -2.97464e-01      -1.11911e+01       1.95978e-04       1.14179e+02
 16.000      2.02944e+02      -5.29574e-01      -1.09630e+01       1.92697e-04       1.12236e+02
 16.100      2.02909e+02      -7.62114e-01      -1.07067e+01       1.89452e-04       1.10327e+02
 16.200      2.02895e+02      -9.92600e-01      -1.04292e+01       1.86248e-04       1.08454e+02
 16.300      2.02899e+02      -1.21854e+00      -1.01373e+01       1.83090e-04       1.06617e+02
 16.400      2.02920e+02      -1.43746e+00      -9.83803e+00       1.79981e-04       1.04818e+02
 16.500      2.02957e+02      -1.64687e+00      -9.53811e+00       1.76926e-04       1.03057e+02
 16.600      2.03007e+02      -1.84429e+00      -9.24445e+00       1.73928e-04       1.01335e+02
 16.700      2.03068e+02      -2.02722e+00      -8.96392e+00       1.70990e-04       9.96540e+01
 16.800      2.03140e+02      -2.19414e+00      -8.70111e+00       1.68114e-04       9.80126e+01
 16.900      2.03221e+02      -2.34557e+00      -8.45562e+00       1.65298e-04       9.64092e+01
 17.000      2.03313e+02      -2.48229e+00      -8.22645e+00       1.62538e-04       9.48421e+01
 17.100      2.03414e+02      -2.60509e+00      -8.01254e+00       1.59831e-04       9.33093e+01
 17.200      2.03525e+02      -2.71476e+00      -7.81289e+00       1.57176e-04       9.18091e+01
 17.300      2.03645e+02      -2.81210e+00      -7.62646e+00       1.54570e-04       9.03400e+01
 17.400      2.03774e+02      -2.89789e+00      -7.45221e+00       1.52010e-04       8.89001e+01
 17.500      2.03912e+02      -2.97293e+00      -7.28912e+00       1.49494e-04       8.74881e+01
 17.600      2.04059e+02      -3.03800e+00      -7.13616e+00       1.47021e-04       8.61025e+01
 17.700      2.04214e+02      -3.09390e+00      -6.99230e+00       1.44587e-04       8.47418e+01
 17.800      2.04378e+02      -3.14140e+00      -6.85652e+00       1.42192e-04       8.34049e+01
 17.900      2.04550e+02      -3.18132e+00      -6.72777e+00       1.39834e-04       8.20904e+01
 18.000      2.04730e+02      -3.21442e+00      -6.60503e+00       1.37509e-04       8.07971e+01
 18.100      2.04918e+02      -3.24151e+00      -6.48728e+00       1.35218e-04       7.95240e+01
 18.200      2.05114e+02      -3.26338e+00      -6.37348e+00       1.32959e-04       7.82698e+01
 18.300      2.05317e+02      -3.28081e+00      -6.26261e+00       1.30729e-04       7.70337e+01
 18.400      2.05528e+02      -3.29459e+00      -6.15363e+00       1.28529e-04       7.58146e+01
 18.500      2.05746e+02      -3.30552e+00      -6.04551e+00       1.26355e-04       7.46116e+01
 18.600      2.05972e+02      -3.31438e+00      -5.93723e+00       1.24208e-04       7.34238e+01
 18.700      2.06204e+02      -3.32196e+00      -5.82775e+00       1.22085e-04       7.22504e+01
 18.800      2.06442e+02      -3.32906e+00      -5.71606e+00       1.19986e-04       7.10906e+01
 18.900      2.06688e+02      -3.33647e+00      -5.60110e+00       1.17910e-04       6.99437e+01
 19.000      2.06939e+02      -3.34485e+00      -5.48216e+00       1.15857e-04       6.88091e+01
 19.100      2.07196e+02      -3.35450e+00      -5.35951e+00       1.13827e-04       6.76874e+01
 19.200      2.07458e+02      -3.36559e+00      -5.23365e+00       1.11821e-04       6.65790e+01
 19.300      2.07724e+02      -3.37833e+00      -5.10508e+00       1.09842e-04       6.54845e+01
 19.400      2.07993e+02      -3.39291e+00      -4.97429e+00       1.07891e-04       6.44043e+01
 19.500      2.08264e+02      -3.40952e+00      -4.84178e+00       1.05968e-04       6.33390e+01
 19.600      2.08538e+02      -3.42835e+00      -4.70806e+00       1.04074e-04       6.22888e+01
 19.700      2.08812e+02      -3.44960e+00      -4.57361e+00       1.02211e-04       6.12541e+01
 19.800      2.09086e+02      -3.47347e+00      -4.43894e+00       1.00379e-04       6.02354e+01
 19.900      2.09359e+02      -3.50014e+00      -4.30454e+00       9.85797e-05       5.92328e+01
 20.000      2.09631e+02      -3.52980e+00      -4.17091e+00       9.68126e-05       5.82465e+01
 20.100      2.09901e+02      -3.56266e+00      -4.03856e+00       9.50787e-05       5.72770e+01
 20.200      2.10168e+02      -3.59890e+00      -3.90797e+00       9.33786e-05       5.63243e+01
 20.300      2.10431e+02      -3.63872e+00      -3.77965e+00       9.17127e-05       5.53887e+01
