# Data Source: NASA GEOS5 Near-Real-Time
# Model Time = 2010-04-10 18:00:00
# Location = [  39.7393, -104.9900 ]
# Fields = [ Z(km), T(K), U(m/s), V(m/s), R(g/cm3), P(mbar) ]
# Ground Height = 1.589
  0.000      2.92554e+02       3.64109e-01       2.51473e+00       1.21210e-03       1.01772e+03
  0.100      2.91916e+02       3.62813e-01       2.47500e+00       1.20047e-03       1.00575e+03
  0.200      2.91287e+02       3.60858e-01       2.42329e+00       1.18892e-03       9.93932e+02
  0.300      2.90649e+02       3.59602e-01       2.38429e+00       1.17752e-03       9.82246e+02
  0.400      2.89982e+02       3.60325e-01       2.38209e+00       1.16634e-03       9.70687e+02
  0.500      2.89294e+02       3.60854e-01       2.41408e+00       1.15534e-03       9.59247e+02
  0.600      2.88631e+02       3.54219e-01       2.44063e+00       1.14431e-03       9.47917e+02
  0.700      2.88014e+02       3.34856e-01       2.43439e+00       1.13318e-03       9.36692e+02
  0.800      2.87397e+02       3.01295e-01       2.40302e+00       1.12215e-03       9.25582e+02
  0.900      2.86738e+02       2.57059e-01       2.35916e+00       1.11138e-03       9.14596e+02
  1.000      2.86068e+02       2.26323e-01       2.31548e+00       1.10074e-03       9.03726e+02
  1.100      2.85431e+02       2.36533e-01       2.28464e+00       1.09006e-03       8.92963e+02
  1.200      2.84827e+02       2.81421e-01       2.27871e+00       1.07933e-03       8.82302e+02
  1.300      2.84224e+02       3.32276e-01       2.30920e+00       1.06868e-03       8.71746e+02
  1.400      2.83593e+02       3.59726e-01       2.37395e+00       1.05822e-03       8.61296e+02
  1.500      2.82914e+02       3.33984e-01       2.44820e+00       1.04802e-03       8.50958e+02
  1.600      2.82172e+02       2.35353e-01       2.51163e+00       1.03815e-03       8.40732e+02
  1.700      2.81372e+02       9.77997e-02       2.57884e+00       1.02857e-03       8.30611e+02
  1.800      2.80527e+02      -2.79983e-02       2.67475e+00       1.01921e-03       8.20582e+02
  1.900      2.79636e+02      -1.21841e-01       2.78944e+00       1.01007e-03       8.10640e+02
  2.000      2.78684e+02      -1.99039e-01       2.87232e+00       1.00121e-03       8.00790e+02
  2.100      2.77673e+02      -2.61954e-01       2.89017e+00       9.92608e-04       7.91032e+02
  2.200      2.76712e+02      -2.36738e-01       2.90990e+00       9.83886e-04       7.81365e+02
  2.300      2.75937e+02      -2.65512e-02       3.02930e+00       9.74553e-04       7.71787e+02
  2.400      2.75412e+02       3.93011e-01       3.28863e+00       9.64408e-04       7.62300e+02
  2.500      2.75083e+02       9.34998e-01       3.63972e+00       9.53674e-04       7.52915e+02
  2.600      2.74887e+02       1.50841e+00       4.02994e+00       9.42598e-04       7.43640e+02
  2.700      2.74771e+02       2.08076e+00       4.43978e+00       9.31380e-04       7.34479e+02
  2.800      2.74687e+02       2.65527e+00       4.86997e+00       9.20185e-04       7.25430e+02
  2.900      2.74588e+02       3.23281e+00       5.31477e+00       9.09172e-04       7.16490e+02
  3.000      2.74421e+02       3.80080e+00       5.73742e+00       8.98509e-04       7.07655e+02
  3.100      2.74131e+02       4.34282e+00       6.09218e+00       8.88356e-04       6.98920e+02
  3.200      2.73687e+02       4.84812e+00       6.34415e+00       8.78801e-04       6.90281e+02
  3.300      2.73113e+02       5.32166e+00       6.48830e+00       8.69742e-04       6.81733e+02
  3.400      2.72446e+02       5.77109e+00       6.52480e+00       8.61048e-04       6.73271e+02
  3.500      2.71720e+02       6.20632e+00       6.45687e+00       8.52604e-04       6.64892e+02
  3.600      2.70959e+02       6.64214e+00       6.29457e+00       8.44327e-04       6.56593e+02
  3.700      2.70188e+02       7.09396e+00       6.04889e+00       8.36138e-04       6.48374e+02
  3.800      2.69424e+02       7.57489e+00       5.73378e+00       8.27982e-04       6.40234e+02
  3.900      2.68670e+02       8.09276e+00       5.36989e+00       8.19855e-04       6.32175e+02
  4.000      2.67925e+02       8.65473e+00       4.97881e+00       8.11761e-04       6.24198e+02
  4.100      2.67183e+02       9.26275e+00       4.57841e+00       8.03718e-04       6.16304e+02
  4.200      2.66424e+02       9.90351e+00       4.17574e+00       7.95787e-04       6.08488e+02
  4.300      2.65622e+02       1.05609e+01       3.77586e+00       7.88037e-04       6.00749e+02
  4.400      2.64759e+02       1.12193e+01       3.38419e+00       7.80520e-04       5.93084e+02
  4.500      2.63838e+02       1.18669e+01       3.00820e+00       7.73214e-04       5.85489e+02
  4.600      2.62874e+02       1.24928e+01       2.65604e+00       7.66075e-04       5.77964e+02
  4.700      2.61880e+02       1.30869e+01       2.33525e+00       7.59059e-04       5.70505e+02
  4.800      2.60874e+02       1.36483e+01       2.04385e+00       7.52114e-04       5.63114e+02
  4.900      2.59878e+02       1.41834e+01       1.77266e+00       7.45181e-04       5.55792e+02
  5.000      2.58911e+02       1.46986e+01       1.51238e+00       7.38202e-04       5.48539e+02
  5.100      2.57989e+02       1.51895e+01       1.26292e+00       7.31142e-04       5.41358e+02
  5.200      2.57107e+02       1.56284e+01       1.04468e+00       7.24013e-04       5.34246e+02
  5.300      2.56260e+02       1.59842e+01       8.80821e-01       7.16832e-04       5.27205e+02
  5.400      2.55443e+02       1.62291e+01       7.93770e-01       7.09613e-04       5.20233e+02
  5.500      2.54657e+02       1.63694e+01       7.98154e-01       7.02362e-04       5.13332e+02
  5.600      2.53902e+02       1.64324e+01       9.03793e-01       6.95076e-04       5.06501e+02
  5.700      2.53183e+02       1.64458e+01       1.12044e+00       6.87749e-04       4.99743e+02
  5.800      2.52500e+02       1.64330e+01       1.44995e+00       6.80383e-04       4.93056e+02
  5.900      2.51852e+02       1.64017e+01       1.86600e+00       6.72984e-04       4.86442e+02
  6.000      2.51235e+02       1.63560e+01       2.33601e+00       6.65563e-04       4.79901e+02
  6.100      2.50648e+02       1.63003e+01       2.82749e+00       6.58127e-04       4.73430e+02
  6.200      2.50085e+02       1.62408e+01       3.32100e+00       6.50692e-04       4.67031e+02
  6.300      2.49539e+02       1.61874e+01       3.82290e+00       6.43282e-04       4.60704e+02
  6.400      2.49000e+02       1.61506e+01       4.34260e+00       6.35921e-04       4.54448e+02
  6.500      2.48460e+02       1.61410e+01       4.88937e+00       6.28632e-04       4.48264e+02
  6.600      2.47911e+02       1.61682e+01       5.46237e+00       6.21432e-04       4.42152e+02
  6.700      2.47352e+02       1.62409e+01       6.04273e+00       6.14325e-04       4.36110e+02
  6.800      2.46781e+02       1.63677e+01       6.60974e+00       6.07315e-04       4.30138e+02
  6.900      2.46196e+02       1.65571e+01       7.14264e+00       6.00404e-04       4.24236e+02
  7.000      2.45594e+02       1.68087e+01       7.62533e+00       5.93599e-04       4.18402e+02
  7.100      2.44969e+02       1.70983e+01       8.05415e+00       5.86912e-04       4.12634e+02
  7.200      2.44313e+02       1.73977e+01       8.42757e+00       5.80355e-04       4.06931e+02
  7.300      2.43619e+02       1.76786e+01       8.74405e+00       5.73940e-04       4.01291e+02
  7.400      2.42882e+02       1.79151e+01       9.00253e+00       5.67679e-04       3.95713e+02
  7.500      2.42104e+02       1.80991e+01       9.20590e+00       5.61561e-04       3.90194e+02
  7.600      2.41291e+02       1.82313e+01       9.35896e+00       5.55568e-04       3.84734e+02
  7.700      2.40450e+02       1.83127e+01       9.46652e+00       5.49684e-04       3.79332e+02
  7.800      2.39587e+02       1.83441e+01       9.53341e+00       5.43890e-04       3.73986e+02
  7.900      2.38708e+02       1.83315e+01       9.56539e+00       5.38172e-04       3.68697e+02
  8.000      2.37818e+02       1.82924e+01       9.57038e+00       5.32517e-04       3.63462e+02
  8.100      2.36922e+02       1.82463e+01       9.55660e+00       5.26914e-04       3.58284e+02
  8.200      2.36025e+02       1.82123e+01       9.53228e+00       5.21352e-04       3.53160e+02
  8.300      2.35133e+02       1.82096e+01       9.50549e+00       5.15819e-04       3.48092e+02
  8.400      2.34248e+02       1.82489e+01       9.47755e+00       5.10310e-04       3.43078e+02
  8.500      2.33371e+02       1.83294e+01       9.44051e+00       5.04824e-04       3.38118e+02
  8.600      2.32501e+02       1.84494e+01       9.38573e+00       4.99361e-04       3.33212e+02
  8.700      2.31638e+02       1.86074e+01       9.30457e+00       4.93921e-04       3.28360e+02
  8.800      2.30783e+02       1.88017e+01       9.18844e+00       4.88505e-04       3.23560e+02
  8.900      2.29936e+02       1.90231e+01       9.03158e+00       4.83112e-04       3.18813e+02
  9.000      2.29097e+02       1.92503e+01       8.83306e+00       4.77742e-04       3.14119e+02
  9.100      2.28266e+02       1.94608e+01       8.59241e+00       4.72394e-04       3.09477e+02
  9.200      2.27446e+02       1.96319e+01       8.30915e+00       4.67068e-04       3.04887e+02
  9.300      2.26635e+02       1.97412e+01       7.98282e+00       4.61762e-04       3.00349e+02
  9.400      2.25835e+02       1.97721e+01       7.61527e+00       4.56477e-04       2.95863e+02
  9.500      2.25047e+02       1.97394e+01       7.22010e+00       4.51209e-04       2.91429e+02
  9.600      2.24273e+02       1.96672e+01       6.81461e+00       4.45956e-04       2.87046e+02
  9.700      2.23516e+02       1.95801e+01       6.41612e+00       4.40716e-04       2.82714e+02
  9.800      2.22776e+02       1.95024e+01       6.04192e+00       4.35485e-04       2.78434e+02
  9.900      2.22056e+02       1.94584e+01       5.70931e+00       4.30262e-04       2.74206e+02
 10.000      2.21355e+02       1.94626e+01       5.43204e+00       4.25048e-04       2.70028e+02
 10.100      2.20668e+02       1.95073e+01       5.21570e+00       4.19855e-04       2.65901e+02
 10.200      2.19988e+02       1.95811e+01       5.06477e+00       4.14695e-04       2.61824e+02
 10.300      2.19310e+02       1.96731e+01       4.98369e+00       4.09580e-04       2.57798e+02
 10.400      2.18627e+02       1.97722e+01       4.97694e+00       4.04522e-04       2.53820e+02
 10.500      2.17932e+02       1.98673e+01       5.04897e+00       3.99531e-04       2.49892e+02
 10.600      2.17223e+02       1.99519e+01       5.20030e+00       3.94612e-04       2.46012e+02
 10.700      2.16512e+02       2.00365e+01       5.41699e+00       3.89743e-04       2.42182e+02
 10.800      2.15813e+02       2.01357e+01       5.68173e+00       3.84898e-04       2.38399e+02
 10.900      2.15140e+02       2.02639e+01       5.97724e+00       3.80053e-04       2.34665e+02
 11.000      2.14510e+02       2.04357e+01       6.28624e+00       3.75182e-04       2.30978e+02
 11.100      2.13935e+02       2.06655e+01       6.59141e+00       3.70263e-04       2.27340e+02
 11.200      2.13432e+02       2.09677e+01       6.87567e+00       3.65275e-04       2.23749e+02
 11.300      2.13009e+02       2.13459e+01       7.13211e+00       3.60205e-04       2.20206e+02
 11.400      2.12672e+02       2.17881e+01       7.36891e+00       3.55052e-04       2.16713e+02
 11.500      2.12423e+02       2.22812e+01       7.59548e+00       3.49821e-04       2.13270e+02
 11.600      2.12267e+02       2.28118e+01       7.82123e+00       3.44512e-04       2.09878e+02
 11.700      2.12206e+02       2.33668e+01       8.05558e+00       3.39128e-04       2.06540e+02
 11.800      2.12245e+02       2.39328e+01       8.30794e+00       3.33673e-04       2.03255e+02
 11.900      2.12387e+02       2.44967e+01       8.58772e+00       3.28151e-04       2.00025e+02
 12.000      2.12632e+02       2.50471e+01       8.90023e+00       3.22570e-04       1.96849e+02
 12.100      2.12964e+02       2.55810e+01       9.23396e+00       3.16960e-04       1.93728e+02
 12.200      2.13365e+02       2.60972e+01       9.57309e+00       3.11356e-04       1.90661e+02
 12.300      2.13816e+02       2.65949e+01       9.90182e+00       3.05788e-04       1.87648e+02
 12.400      2.14298e+02       2.70728e+01       1.02043e+01       3.00287e-04       1.84687e+02
 12.500      2.14791e+02       2.75301e+01       1.04649e+01       2.94879e-04       1.81778e+02
 12.600      2.15277e+02       2.79656e+01       1.06675e+01       2.89589e-04       1.78921e+02
 12.700      2.15737e+02       2.83782e+01       1.07966e+01       2.84439e-04       1.76115e+02
 12.800      2.16152e+02       2.87670e+01       1.08372e+01       2.79450e-04       1.73358e+02
 12.900      2.16516e+02       2.91287e+01       1.07893e+01       2.74624e-04       1.70651e+02
 13.000      2.16830e+02       2.94592e+01       1.06646e+01       2.69952e-04       1.67992e+02
 13.100      2.17097e+02       2.97540e+01       1.04749e+01       2.65426e-04       1.65378e+02
 13.200      2.17318e+02       3.00087e+01       1.02321e+01       2.61037e-04       1.62809e+02
 13.300      2.17496e+02       3.02189e+01       9.94789e+00       2.56778e-04       1.60284e+02
 13.400      2.17632e+02       3.03801e+01       9.63427e+00       2.52642e-04       1.57801e+02
 13.500      2.17730e+02       3.04881e+01       9.30305e+00       2.48620e-04       1.55359e+02
 13.600      2.17790e+02       3.05383e+01       8.96608e+00       2.44708e-04       1.52957e+02
 13.700      2.17816e+02       3.05264e+01       8.63522e+00       2.40899e-04       1.50593e+02
 13.800      2.17808e+02       3.04486e+01       8.32151e+00       2.37186e-04       1.48267e+02
 13.900      2.17770e+02       3.03071e+01       8.02890e+00       2.33564e-04       1.45977e+02
 14.000      2.17704e+02       3.01072e+01       7.75765e+00       2.30026e-04       1.43722e+02
 14.100      2.17612e+02       2.98541e+01       7.50799e+00       2.26566e-04       1.41501e+02
 14.200      2.17496e+02       2.95530e+01       7.28013e+00       2.23180e-04       1.39312e+02
 14.300      2.17360e+02       2.92092e+01       7.07432e+00       2.19861e-04       1.37154e+02
 14.400      2.17205e+02       2.88280e+01       6.89076e+00       2.16605e-04       1.35026e+02
 14.500      2.17033e+02       2.84146e+01       6.72969e+00       2.13406e-04       1.32927e+02
 14.600      2.16848e+02       2.79744e+01       6.59134e+00       2.10261e-04       1.30856e+02
 14.700      2.16651e+02       2.75125e+01       6.47593e+00       2.07165e-04       1.28812e+02
 14.800      2.16444e+02       2.70341e+01       6.38368e+00       2.04113e-04       1.26794e+02
 14.900      2.16232e+02       2.65447e+01       6.31482e+00       2.01103e-04       1.24801e+02
 15.000      2.16014e+02       2.60485e+01       6.26903e+00       1.98130e-04       1.22833e+02
 15.100      2.15793e+02       2.55470e+01       6.24436e+00       1.95195e-04       1.20890e+02
 15.200      2.15570e+02       2.50413e+01       6.23856e+00       1.92299e-04       1.18973e+02
 15.300      2.15347e+02       2.45326e+01       6.24939e+00       1.89441e-04       1.17083e+02
 15.400      2.15123e+02       2.40217e+01       6.27459e+00       1.86623e-04       1.15222e+02
 15.500      2.14902e+02       2.35099e+01       6.31192e+00       1.83844e-04       1.13389e+02
 15.600      2.14683e+02       2.29981e+01       6.35913e+00       1.81104e-04       1.11585e+02
 15.700      2.14468e+02       2.24875e+01       6.41396e+00       1.78404e-04       1.09812e+02
 15.800      2.14259e+02       2.19790e+01       6.47418e+00       1.75744e-04       1.08069e+02
 15.900      2.14056e+02       2.14737e+01       6.53753e+00       1.73124e-04       1.06357e+02
 16.000      2.13860e+02       2.09727e+01       6.60177e+00       1.70544e-04       1.04676e+02
 16.100      2.13674e+02       2.04771e+01       6.66464e+00       1.68004e-04       1.03027e+02
 16.200      2.13498e+02       1.99879e+01       6.72391e+00       1.65504e-04       1.01411e+02
 16.300      2.13333e+02       1.95061e+01       6.77731e+00       1.63044e-04       9.98263e+01
 16.400      2.13180e+02       1.90326e+01       6.82316e+00       1.60624e-04       9.82741e+01
 16.500      2.13040e+02       1.85677e+01       6.86138e+00       1.58241e-04       9.67528e+01
 16.600      2.12912e+02       1.81113e+01       6.89218e+00       1.55895e-04       9.52610e+01
 16.700      2.12796e+02       1.76637e+01       6.91576e+00       1.53584e-04       9.37974e+01
 16.800      2.12692e+02       1.72248e+01       6.93231e+00       1.51305e-04       9.23606e+01
 16.900      2.12599e+02       1.67948e+01       6.94206e+00       1.49058e-04       9.09494e+01
 17.000      2.12518e+02       1.63738e+01       6.94521e+00       1.46842e-04       8.95626e+01
 17.100      2.12448e+02       1.59618e+01       6.94195e+00       1.44653e-04       8.81990e+01
 17.200      2.12390e+02       1.55590e+01       6.93250e+00       1.42493e-04       8.68577e+01
 17.300      2.12343e+02       1.51654e+01       6.91706e+00       1.40358e-04       8.55375e+01
 17.400      2.12306e+02       1.47812e+01       6.89584e+00       1.38249e-04       8.42375e+01
 17.500      2.12280e+02       1.44065e+01       6.86904e+00       1.36163e-04       8.29567e+01
 17.600      2.12265e+02       1.40412e+01       6.83687e+00       1.34100e-04       8.16942e+01
 17.700      2.12261e+02       1.36856e+01       6.79952e+00       1.32059e-04       8.04491e+01
 17.800      2.12267e+02       1.33398e+01       6.75722e+00       1.30039e-04       7.92207e+01
 17.900      2.12282e+02       1.30037e+01       6.71016e+00       1.28039e-04       7.80081e+01
 18.000      2.12308e+02       1.26775e+01       6.65854e+00       1.26059e-04       7.68106e+01
 18.100      2.12344e+02       1.23613e+01       6.60258e+00       1.24096e-04       7.56275e+01
 18.200      2.12390e+02       1.20553e+01       6.54248e+00       1.22151e-04       7.44582e+01
 18.300      2.12445e+02       1.17594e+01       6.47844e+00       1.20223e-04       7.33020e+01
 18.400      2.12509e+02       1.14738e+01       6.41067e+00       1.18311e-04       7.21582e+01
 18.500      2.12583e+02       1.11985e+01       6.33937e+00       1.16415e-04       7.10263e+01
 18.600      2.12666e+02       1.09338e+01       6.26475e+00       1.14534e-04       6.99059e+01
 18.700      2.12757e+02       1.06795e+01       6.18702e+00       1.12668e-04       6.87966e+01
 18.800      2.12857e+02       1.04354e+01       6.10635e+00       1.10818e-04       6.76989e+01
 18.900      2.12964e+02       1.02013e+01       6.02293e+00       1.08986e-04       6.66134e+01
 19.000      2.13079e+02       9.97678e+00       5.93695e+00       1.07174e-04       6.55406e+01
 19.100      2.13199e+02       9.76162e+00       5.84860e+00       1.05382e-04       6.44811e+01
 19.200      2.13325e+02       9.55550e+00       5.75805e+00       1.03611e-04       6.34353e+01
 19.300      2.13456e+02       9.35814e+00       5.66549e+00       1.01864e-04       6.24037e+01
 19.400      2.13591e+02       9.16922e+00       5.57111e+00       1.00140e-04       6.13866e+01
 19.500      2.13730e+02       8.98845e+00       5.47508e+00       9.84413e-05       6.03844e+01
 19.600      2.13872e+02       8.81553e+00       5.37760e+00       9.67684e-05       5.93975e+01
 19.700      2.14015e+02       8.65018e+00       5.27885e+00       9.51219e-05       5.84262e+01
 19.800      2.14161e+02       8.49209e+00       5.17902e+00       9.35028e-05       5.74706e+01
 19.900      2.14307e+02       8.34096e+00       5.07829e+00       9.19115e-05       5.65311e+01
 20.000      2.14453e+02       8.19651e+00       4.97683e+00       9.03489e-05       5.56079e+01
 20.100      2.14598e+02       8.05842e+00       4.87485e+00       8.88152e-05       5.47011e+01
 20.200      2.14743e+02       7.92641e+00       4.77252e+00       8.73110e-05       5.38109e+01
 20.300      2.14886e+02       7.80018e+00       4.67003e+00       8.58368e-05       5.29374e+01
