# Data Source: NASA MERRA (version 2)
# Model Time = 2011-05-10 18:00:00
# Location = [  39.1026,  -84.5123 ]
# Fields = [ Z(km), T(K), U(m/s), V(m/s), R(g/cm3), P(mbar) ]
# Ground Height = 0.165
  0.000      3.01584e+02       2.70693e+00       2.87666e+00       1.16641e-03       1.00958e+03
  0.100      3.01020e+02       2.71463e+00       2.90949e+00       1.15525e-03       9.98048e+02
  0.200      3.00435e+02       2.74347e+00       2.96357e+00       1.14428e-03       9.86651e+02
  0.300      2.99706e+02       2.91786e+00       3.16390e+00       1.13402e-03       9.75433e+02
  0.400      2.98754e+02       3.31044e+00       3.58036e+00       1.12478e-03       9.64415e+02
  0.500      2.97691e+02       3.76122e+00       4.03504e+00       1.11607e-03       9.53543e+02
  0.600      2.96669e+02       4.06732e+00       4.30311e+00       1.10724e-03       9.42749e+02
  0.700      2.95721e+02       4.28194e+00       4.41844e+00       1.09815e-03       9.32018e+02
  0.800      2.94799e+02       4.61858e+00       4.57729e+00       1.08900e-03       9.21370e+02
  0.900      2.93890e+02       5.15625e+00       4.86556e+00       1.07985e-03       9.10816e+02
  1.000      2.93037e+02       5.76617e+00       5.19799e+00       1.07056e-03       9.00356e+02
  1.100      2.92275e+02       6.32302e+00       5.49120e+00       1.06099e-03       8.89991e+02
  1.200      2.91588e+02       6.79328e+00       5.73339e+00       1.05122e-03       8.79718e+02
  1.300      2.90942e+02       7.16892e+00       5.93262e+00       1.04136e-03       8.69537e+02
  1.400      2.90307e+02       7.44190e+00       6.09690e+00       1.03152e-03       8.59445e+02
  1.500      2.89651e+02       7.60416e+00       6.23429e+00       1.02183e-03       8.49442e+02
  1.600      2.88956e+02       7.65941e+00       6.34411e+00       1.01233e-03       8.39526e+02
  1.700      2.88257e+02       7.65115e+00       6.39626e+00       1.00291e-03       8.29701e+02
  1.800      2.87596e+02       7.63126e+00       6.35440e+00       9.93417e-04       8.19968e+02
  1.900      2.87019e+02       7.65163e+00       6.18221e+00       9.83717e-04       8.10331e+02
  2.000      2.86568e+02       7.76415e+00       5.84334e+00       9.73666e-04       8.00793e+02
  2.100      2.86275e+02       8.01165e+00       5.31096e+00       9.63178e-04       7.91355e+02
  2.200      2.86097e+02       8.39026e+00       4.60716e+00       9.52402e-04       7.82016e+02
  2.300      2.85972e+02       8.88117e+00       3.76967e+00       9.41560e-04       7.72777e+02
  2.400      2.85837e+02       9.46556e+00       2.83625e+00       9.30863e-04       7.63636e+02
  2.500      2.85628e+02       1.01246e+01       1.84468e+00       9.20512e-04       7.54592e+02
  2.600      2.85283e+02       1.08393e+01       8.32352e-01       9.10696e-04       7.45645e+02
  2.700      2.84788e+02       1.15869e+01      -1.71552e-01       9.01449e-04       7.36791e+02
  2.800      2.84173e+02       1.23409e+01      -1.14637e+00       8.92655e-04       7.28028e+02
  2.900      2.83473e+02       1.30743e+01      -2.07184e+00       8.84197e-04       7.19354e+02
  3.000      2.82722e+02       1.37604e+01      -2.92769e+00       8.75959e-04       7.10764e+02
  3.100      2.81954e+02       1.43724e+01      -3.69365e+00       8.67831e-04       7.02257e+02
  3.200      2.81201e+02       1.48859e+01      -4.35165e+00       8.59715e-04       6.93829e+02
  3.300      2.80466e+02       1.52981e+01      -4.90379e+00       8.51595e-04       6.85480e+02
  3.400      2.79740e+02       1.56182e+01      -5.36306e+00       8.43504e-04       6.77210e+02
  3.500      2.79012e+02       1.58553e+01      -5.74255e+00       8.35472e-04       6.69016e+02
  3.600      2.78272e+02       1.60185e+01      -6.05536e+00       8.27530e-04       6.60900e+02
  3.700      2.77511e+02       1.61171e+01      -6.31458e+00       8.19706e-04       6.52860e+02
  3.800      2.76718e+02       1.61601e+01      -6.53295e+00       8.12027e-04       6.44897e+02
  3.900      2.75894e+02       1.61548e+01      -6.71877e+00       8.04491e-04       6.37008e+02
  4.000      2.75043e+02       1.61076e+01      -6.87727e+00       7.97080e-04       6.29193e+02
  4.100      2.74172e+02       1.60245e+01      -7.01363e+00       7.89773e-04       6.21451e+02
  4.200      2.73286e+02       1.59119e+01      -7.13300e+00       7.82552e-04       6.13780e+02
  4.300      2.72391e+02       1.57759e+01      -7.24056e+00       7.75399e-04       6.06179e+02
  4.400      2.71494e+02       1.56226e+01      -7.34146e+00       7.68296e-04       5.98646e+02
  4.500      2.70598e+02       1.54571e+01      -7.43895e+00       7.61227e-04       5.91182e+02
  4.600      2.69709e+02       1.52808e+01      -7.53169e+00       7.54181e-04       5.83786e+02
  4.700      2.68831e+02       1.50951e+01      -7.61771e+00       7.47147e-04       5.76458e+02
  4.800      2.67967e+02       1.49010e+01      -7.69503e+00       7.40116e-04       5.69198e+02
  4.900      2.67123e+02       1.46997e+01      -7.76167e+00       7.33077e-04       5.62007e+02
  5.000      2.66301e+02       1.44924e+01      -7.81565e+00       7.26020e-04       5.54885e+02
  5.100      2.65505e+02       1.42803e+01      -7.85505e+00       7.18937e-04       5.47831e+02
  5.200      2.64738e+02       1.40687e+01      -7.88286e+00       7.11827e-04       5.40845e+02
  5.300      2.63994e+02       1.38693e+01      -7.91010e+00       7.04704e-04       5.33929e+02
  5.400      2.63269e+02       1.36945e+01      -7.94861e+00       6.97582e-04       5.27081e+02
  5.500      2.62558e+02       1.35566e+01      -8.01017e+00       6.90477e-04       5.20303e+02
  5.600      2.61856e+02       1.34682e+01      -8.10662e+00       6.83401e-04       5.13594e+02
  5.700      2.61158e+02       1.34414e+01      -8.24974e+00       6.76369e-04       5.06955e+02
  5.800      2.60460e+02       1.34889e+01      -8.45136e+00       6.69393e-04       5.00385e+02
  5.900      2.59758e+02       1.36189e+01      -8.71887e+00       6.62484e-04       4.93885e+02
  6.000      2.59050e+02       1.38215e+01      -9.03861e+00       6.55641e-04       4.87452e+02
  6.100      2.58338e+02       1.40810e+01      -9.39066e+00       6.48862e-04       4.81086e+02
  6.200      2.57622e+02       1.43817e+01      -9.75508e+00       6.42142e-04       4.74785e+02
  6.300      2.56903e+02       1.47080e+01      -1.01119e+01       6.35479e-04       4.68546e+02
  6.400      2.56181e+02       1.50442e+01      -1.04413e+01       6.28869e-04       4.62370e+02
  6.500      2.55457e+02       1.53747e+01      -1.07232e+01       6.22309e-04       4.56253e+02
  6.600      2.54731e+02       1.56838e+01      -1.09378e+01       6.15797e-04       4.50195e+02
  6.700      2.54003e+02       1.59588e+01      -1.10701e+01       6.09331e-04       4.44195e+02
  6.800      2.53272e+02       1.61997e+01      -1.11275e+01       6.02918e-04       4.38255e+02
  6.900      2.52536e+02       1.64100e+01      -1.11235e+01       5.96565e-04       4.32378e+02
  7.000      2.51794e+02       1.65933e+01      -1.10716e+01       5.90282e-04       4.26566e+02
  7.100      2.51042e+02       1.67531e+01      -1.09853e+01       5.84075e-04       4.20821e+02
  7.200      2.50280e+02       1.68929e+01      -1.08781e+01       5.77951e-04       4.15145e+02
  7.300      2.49506e+02       1.70163e+01      -1.07634e+01       5.71918e-04       4.09540e+02
  7.400      2.48717e+02       1.71269e+01      -1.06549e+01       5.65983e-04       4.04009e+02
  7.500      2.47912e+02       1.72280e+01      -1.05658e+01       5.60152e-04       3.98552e+02
  7.600      2.47090e+02       1.73220e+01      -1.05048e+01       5.54422e-04       3.93167e+02
  7.700      2.46253e+02       1.74082e+01      -1.04711e+01       5.48775e-04       3.87845e+02
  7.800      2.45405e+02       1.74860e+01      -1.04631e+01       5.43191e-04       3.82575e+02
  7.900      2.44547e+02       1.75546e+01      -1.04790e+01       5.37650e-04       3.77349e+02
  8.000      2.43681e+02       1.76132e+01      -1.05172e+01       5.32135e-04       3.72157e+02
  8.100      2.42812e+02       1.76611e+01      -1.05761e+01       5.26628e-04       3.66991e+02
  8.200      2.41940e+02       1.76976e+01      -1.06539e+01       5.21111e-04       3.61843e+02
  8.300      2.41069e+02       1.77218e+01      -1.07490e+01       5.15569e-04       3.56705e+02
  8.400      2.40200e+02       1.77331e+01      -1.08597e+01       5.09985e-04       3.51571e+02
  8.500      2.39337e+02       1.77307e+01      -1.09843e+01       5.04348e-04       3.46435e+02
  8.600      2.38480e+02       1.77151e+01      -1.11208e+01       4.98679e-04       3.41315e+02
  8.700      2.37631e+02       1.76873e+01      -1.12672e+01       4.93015e-04       3.36236e+02
  8.800      2.36789e+02       1.76482e+01      -1.14213e+01       4.87394e-04       3.31225e+02
  8.900      2.35954e+02       1.75990e+01      -1.15811e+01       4.81851e-04       3.26304e+02
  9.000      2.35129e+02       1.75406e+01      -1.17445e+01       4.76421e-04       3.21498e+02
  9.100      2.34312e+02       1.74741e+01      -1.19094e+01       4.71135e-04       3.16827e+02
  9.200      2.33505e+02       1.74004e+01      -1.20737e+01       4.66025e-04       3.12311e+02
  9.300      2.32708e+02       1.73207e+01      -1.22353e+01       4.61119e-04       3.07968e+02
  9.400      2.31921e+02       1.72359e+01      -1.23921e+01       4.56446e-04       3.03816e+02
  9.500      2.31145e+02       1.71470e+01      -1.25421e+01       4.52034e-04       2.99873e+02
  9.600      2.30381e+02       1.70548e+01      -1.26835e+01       4.47896e-04       2.96145e+02
  9.700      2.29627e+02       1.69592e+01      -1.28168e+01       4.44009e-04       2.92615e+02
  9.800      2.28884e+02       1.68597e+01      -1.29425e+01       4.40339e-04       2.89258e+02
  9.900      2.28152e+02       1.67560e+01      -1.30612e+01       4.36854e-04       2.86050e+02
 10.000      2.27430e+02       1.66476e+01      -1.31737e+01       4.33524e-04       2.82971e+02
 10.100      2.26717e+02       1.65343e+01      -1.32806e+01       4.30319e-04       2.79999e+02
 10.200      2.26014e+02       1.64156e+01      -1.33825e+01       4.27211e-04       2.77114e+02
 10.300      2.25320e+02       1.62911e+01      -1.34801e+01       4.24171e-04       2.74297e+02
 10.400      2.24634e+02       1.61605e+01      -1.35741e+01       4.21173e-04       2.71530e+02
 10.500      2.23957e+02       1.60234e+01      -1.36650e+01       4.18190e-04       2.68794e+02
 10.600      2.23287e+02       1.58794e+01      -1.37536e+01       4.15196e-04       2.66072e+02
 10.700      2.22626e+02       1.57281e+01      -1.38405e+01       4.12168e-04       2.63349e+02
 10.800      2.21971e+02       1.55691e+01      -1.39264e+01       4.09081e-04       2.60608e+02
 10.900      2.21324e+02       1.54021e+01      -1.40119e+01       4.05911e-04       2.57835e+02
 11.000      2.20683e+02       1.52266e+01      -1.40976e+01       4.02636e-04       2.55014e+02
 11.100      2.20049e+02       1.50423e+01      -1.41843e+01       3.99235e-04       2.52133e+02
 11.200      2.19420e+02       1.48488e+01      -1.42725e+01       3.95688e-04       2.49179e+02
 11.300      2.18798e+02       1.46465e+01      -1.43619e+01       3.91979e-04       2.46144e+02
 11.400      2.18187e+02       1.44372e+01      -1.44503e+01       3.88109e-04       2.43032e+02
 11.500      2.17588e+02       1.42226e+01      -1.45352e+01       3.84075e-04       2.39846e+02
 11.600      2.17005e+02       1.40048e+01      -1.46143e+01       3.79878e-04       2.36590e+02
 11.700      2.16443e+02       1.37855e+01      -1.46851e+01       3.75519e-04       2.33269e+02
 11.800      2.15903e+02       1.35667e+01      -1.47453e+01       3.70998e-04       2.29886e+02
 11.900      2.15390e+02       1.33503e+01      -1.47923e+01       3.66315e-04       2.26445e+02
 12.000      2.14906e+02       1.31382e+01      -1.48239e+01       3.61474e-04       2.22950e+02
 12.100      2.14456e+02       1.29321e+01      -1.48376e+01       3.56475e-04       2.19406e+02
 12.200      2.14041e+02       1.27341e+01      -1.48310e+01       3.51322e-04       2.15816e+02
 12.300      2.13666e+02       1.25460e+01      -1.48017e+01       3.46017e-04       2.12185e+02
 12.400      2.13334e+02       1.23698e+01      -1.47473e+01       3.40564e-04       2.08516e+02
 12.500      2.13047e+02       1.22071e+01      -1.46653e+01       3.34967e-04       2.04814e+02
 12.600      2.12810e+02       1.20601e+01      -1.45534e+01       3.29231e-04       2.01083e+02
 12.700      2.12625e+02       1.19303e+01      -1.44096e+01       3.23362e-04       1.97327e+02
 12.800      2.12490e+02       1.18177e+01      -1.42361e+01       3.17387e-04       1.93557e+02
 12.900      2.12399e+02       1.17211e+01      -1.40379e+01       3.11340e-04       1.89788e+02
 13.000      2.12348e+02       1.16393e+01      -1.38195e+01       3.05254e-04       1.86034e+02
 13.100      2.12331e+02       1.15711e+01      -1.35859e+01       2.99162e-04       1.82307e+02
 13.200      2.12343e+02       1.15153e+01      -1.33418e+01       2.93093e-04       1.78618e+02
 13.300      2.12378e+02       1.14708e+01      -1.30920e+01       2.87073e-04       1.74978e+02
 13.400      2.12432e+02       1.14363e+01      -1.28414e+01       2.81128e-04       1.71398e+02
 13.500      2.12499e+02       1.14108e+01      -1.25946e+01       2.75281e-04       1.67886e+02
 13.600      2.12574e+02       1.13930e+01      -1.23565e+01       2.69552e-04       1.64451e+02
 13.700      2.12652e+02       1.13817e+01      -1.21318e+01       2.63962e-04       1.61099e+02
 13.800      2.12727e+02       1.13757e+01      -1.19254e+01       2.58528e-04       1.57838e+02
 13.900      2.12794e+02       1.13740e+01      -1.17421e+01       2.53266e-04       1.54674e+02
 14.000      2.12848e+02       1.13752e+01      -1.15866e+01       2.48190e-04       1.51613e+02
 14.100      2.12884e+02       1.13782e+01      -1.14636e+01       2.43313e-04       1.48659e+02
 14.200      2.12900e+02       1.13822e+01      -1.13747e+01       2.38635e-04       1.45812e+02
 14.300      2.12896e+02       1.13863e+01      -1.13179e+01       2.34145e-04       1.43065e+02
 14.400      2.12873e+02       1.13902e+01      -1.12910e+01       2.29831e-04       1.40414e+02
 14.500      2.12833e+02       1.13930e+01      -1.12921e+01       2.25681e-04       1.37853e+02
 14.600      2.12776e+02       1.13942e+01      -1.13188e+01       2.21686e-04       1.35377e+02
 14.700      2.12704e+02       1.13931e+01      -1.13691e+01       2.17836e-04       1.32980e+02
 14.800      2.12617e+02       1.13892e+01      -1.14409e+01       2.14122e-04       1.30659e+02
 14.900      2.12516e+02       1.13818e+01      -1.15320e+01       2.10534e-04       1.28409e+02
 15.000      2.12403e+02       1.13702e+01      -1.16403e+01       2.07065e-04       1.26226e+02
 15.100      2.12279e+02       1.13539e+01      -1.17636e+01       2.03706e-04       1.24106e+02
 15.200      2.12144e+02       1.13322e+01      -1.18999e+01       2.00451e-04       1.22045e+02
 15.300      2.11999e+02       1.13045e+01      -1.20469e+01       1.97293e-04       1.20040e+02
 15.400      2.11846e+02       1.12701e+01      -1.22027e+01       1.94224e-04       1.18088e+02
 15.500      2.11686e+02       1.12285e+01      -1.23649e+01       1.91238e-04       1.16185e+02
 15.600      2.11519e+02       1.11790e+01      -1.25316e+01       1.88330e-04       1.14328e+02
 15.700      2.11347e+02       1.11210e+01      -1.27005e+01       1.85493e-04       1.12514e+02
 15.800      2.11170e+02       1.10539e+01      -1.28695e+01       1.82723e-04       1.10741e+02
 15.900      2.10990e+02       1.09770e+01      -1.30366e+01       1.80014e-04       1.09006e+02
 16.000      2.10808e+02       1.08897e+01      -1.31995e+01       1.77360e-04       1.07306e+02
 16.100      2.10624e+02       1.07914e+01      -1.33562e+01       1.74759e-04       1.05640e+02
 16.200      2.10439e+02       1.06814e+01      -1.35044e+01       1.72204e-04       1.04004e+02
 16.300      2.10256e+02       1.05591e+01      -1.36422e+01       1.69692e-04       1.02398e+02
 16.400      2.10074e+02       1.04240e+01      -1.37672e+01       1.67219e-04       1.00818e+02
 16.500      2.09895e+02       1.02754e+01      -1.38776e+01       1.64781e-04       9.92636e+01
 16.600      2.09719e+02       1.01130e+01      -1.39720e+01       1.62375e-04       9.77325e+01
 16.700      2.09548e+02       9.93710e+00      -1.40504e+01       1.60000e-04       9.62243e+01
 16.800      2.09381e+02       9.74794e+00      -1.41127e+01       1.57654e-04       9.47384e+01
 16.900      2.09220e+02       9.54573e+00      -1.41587e+01       1.55337e-04       9.32743e+01
 17.000      2.09066e+02       9.33071e+00      -1.41885e+01       1.53047e-04       9.18312e+01
 17.100      2.08918e+02       9.10311e+00      -1.42019e+01       1.50783e-04       9.04087e+01
 17.200      2.08778e+02       8.86316e+00      -1.41988e+01       1.48543e-04       8.90061e+01
 17.300      2.08646e+02       8.61110e+00      -1.41791e+01       1.46327e-04       8.76231e+01
 17.400      2.08524e+02       8.34716e+00      -1.41428e+01       1.44134e-04       8.62589e+01
 17.500      2.08411e+02       8.07156e+00      -1.40897e+01       1.41962e-04       8.49132e+01
 17.600      2.08308e+02       7.78455e+00      -1.40198e+01       1.39812e-04       8.35855e+01
 17.700      2.08217e+02       7.48635e+00      -1.39330e+01       1.37681e-04       8.22754e+01
 17.800      2.08137e+02       7.17720e+00      -1.38292e+01       1.35569e-04       8.09824e+01
 17.900      2.08069e+02       6.85733e+00      -1.37083e+01       1.33475e-04       7.97060e+01
 18.000      2.08015e+02       6.52697e+00      -1.35702e+01       1.31400e-04       7.84460e+01
 18.100      2.07975e+02       6.18635e+00      -1.34149e+01       1.29341e-04       7.72018e+01
 18.200      2.07949e+02       5.83572e+00      -1.32422e+01       1.27298e-04       7.59732e+01
 18.300      2.07938e+02       5.47530e+00      -1.30520e+01       1.25272e-04       7.47599e+01
 18.400      2.07943e+02       5.10531e+00      -1.28444e+01       1.23260e-04       7.35613e+01
 18.500      2.07964e+02       4.72600e+00      -1.26191e+01       1.21264e-04       7.23773e+01
 18.600      2.08003e+02       4.33759e+00      -1.23761e+01       1.19282e-04       7.12074e+01
 18.700      2.08060e+02       3.94033e+00      -1.21153e+01       1.17313e-04       7.00515e+01
 18.800      2.08135e+02       3.53469e+00      -1.18368e+01       1.15359e-04       6.89094e+01
 18.900      2.08227e+02       3.12228e+00      -1.15418e+01       1.13420e-04       6.77813e+01
 19.000      2.08336e+02       2.70502e+00      -1.12316e+01       1.11499e-04       6.66677e+01
 19.100      2.08460e+02       2.28486e+00      -1.09076e+01       1.09596e-04       6.55689e+01
 19.200      2.08598e+02       1.86373e+00      -1.05713e+01       1.07713e-04       6.44854e+01
 19.300      2.08749e+02       1.44355e+00      -1.02240e+01       1.05853e-04       6.34174e+01
 19.400      2.08913e+02       1.02627e+00      -9.86709e+00       1.04015e-04       6.23653e+01
 19.500      2.09086e+02       6.13804e-01      -9.50198e+00       1.02202e-04       6.13293e+01
 19.600      2.09270e+02       2.08095e-01      -9.13007e+00       1.00415e-04       6.03096e+01
 19.700      2.09462e+02      -1.88926e-01      -8.75274e+00       9.86541e-05       5.93065e+01
 19.800      2.09661e+02      -5.75320e-01      -8.37141e+00       9.69211e-05       5.83201e+01
 19.900      2.09867e+02      -9.49169e-01      -7.98743e+00       9.52165e-05       5.73505e+01
 20.000      2.10077e+02      -1.30853e+00      -7.60223e+00       9.35412e-05       5.63980e+01
 20.100      2.10292e+02      -1.65148e+00      -7.21718e+00       9.18959e-05       5.54626e+01
 20.200      2.10509e+02      -1.97607e+00      -6.83368e+00       9.02812e-05       5.45444e+01
 20.300      2.10728e+02      -2.28038e+00      -6.45314e+00       8.86977e-05       5.36435e+01
