# Data Source: NASA MERRA (version 1)
# Model Time = 2010-02-22 18:00:00
# Location = [  39.7393, -104.9900 ]
# Fields = [ Z(km), T(K), U(m/s), V(m/s), R(g/cm3), P(mbar) ]
# Ground Height = 1.589
  0.000      2.77265e+02       1.84074e+00      -8.58260e-01       1.28263e-03       1.02066e+03
  0.100      2.76602e+02       1.84981e+00      -8.78096e-01       1.26989e-03       1.00810e+03
  0.200      2.75947e+02       1.86549e+00      -8.71060e-01       1.25726e-03       9.95709e+02
  0.300      2.75288e+02       1.87764e+00      -8.78345e-01       1.24477e-03       9.83465e+02
  0.400      2.74611e+02       1.87620e+00      -9.40569e-01       1.23247e-03       9.71353e+02
  0.500      2.73918e+02       1.85371e+00      -1.05436e+00       1.22034e-03       9.59360e+02
  0.600      2.73230e+02       1.80723e+00      -1.14248e+00       1.20825e-03       9.47477e+02
  0.700      2.72556e+02       1.74311e+00      -1.16114e+00       1.19619e-03       9.35703e+02
  0.800      2.71872e+02       1.68686e+00      -1.15391e+00       1.18426e-03       9.24048e+02
  0.900      2.71163e+02       1.65416e+00      -1.15934e+00       1.17255e-03       9.12521e+02
  1.000      2.70463e+02       1.62218e+00      -1.16477e+00       1.16089e-03       9.01114e+02
  1.100      2.69810e+02       1.56713e+00      -1.15131e+00       1.14911e-03       8.89818e+02
  1.200      2.69194e+02       1.50046e+00      -1.12040e+00       1.13726e-03       8.78633e+02
  1.300      2.68591e+02       1.44540e+00      -1.08025e+00       1.12545e-03       8.67559e+02
  1.400      2.67979e+02       1.42521e+00      -1.03911e+00       1.11377e-03       8.56598e+02
  1.500      2.67333e+02       1.46256e+00      -1.00539e+00       1.10232e-03       8.45750e+02
  1.600      2.66646e+02       1.55648e+00      -9.94527e-01       1.09113e-03       8.35017e+02
  1.700      2.65933e+02       1.67475e+00      -1.03125e+00       1.08014e-03       8.24395e+02
  1.800      2.65208e+02       1.78299e+00      -1.14093e+00       1.06928e-03       8.13881e+02
  1.900      2.64487e+02       1.84684e+00      -1.34895e+00       1.05849e-03       8.03474e+02
  2.000      2.63784e+02       1.83493e+00      -1.67746e+00       1.04770e-03       7.93171e+02
  2.100      2.63109e+02       1.75116e+00      -2.11090e+00       1.03688e-03       7.82973e+02
  2.200      2.62469e+02       1.62234e+00      -2.60923e+00       1.02601e-03       7.72881e+02
  2.300      2.61869e+02       1.47568e+00      -3.13194e+00       1.01508e-03       7.62896e+02
  2.400      2.61316e+02       1.33840e+00      -3.63857e+00       1.00406e-03       7.53022e+02
  2.500      2.60814e+02       1.23639e+00      -4.09069e+00       9.92946e-04       7.43257e+02
  2.600      2.60355e+02       1.18166e+00      -4.47165e+00       9.81780e-04       7.33603e+02
  2.700      2.59918e+02       1.17781e+00      -4.77794e+00       9.70633e-04       7.24057e+02
  2.800      2.59486e+02       1.22836e+00      -5.00624e+00       9.59575e-04       7.14618e+02
  2.900      2.59039e+02       1.33680e+00      -5.15324e+00       9.48673e-04       7.05284e+02
  3.000      2.58560e+02       1.50635e+00      -5.21582e+00       9.37991e-04       6.96052e+02
  3.100      2.58041e+02       1.73096e+00      -5.19799e+00       9.27549e-04       6.86923e+02
  3.200      2.57491e+02       1.99340e+00      -5.11234e+00       9.17316e-04       6.77895e+02
  3.300      2.56916e+02       2.27580e+00      -4.97195e+00       9.07260e-04       6.68967e+02
  3.400      2.56325e+02       2.56027e+00      -4.78991e+00       8.97351e-04       6.60139e+02
  3.500      2.55726e+02       2.82892e+00      -4.57932e+00       8.87556e-04       6.51408e+02
  3.600      2.55126e+02       3.06680e+00      -4.35217e+00       8.77855e-04       6.42775e+02
  3.700      2.54519e+02       3.27812e+00      -4.11323e+00       8.68259e-04       6.34237e+02
  3.800      2.53897e+02       3.47481e+00      -3.86440e+00       8.58798e-04       6.25792e+02
  3.900      2.53250e+02       3.66884e+00      -3.60755e+00       8.49496e-04       6.17438e+02
  4.000      2.52570e+02       3.87215e+00      -3.34454e+00       8.40381e-04       6.09172e+02
  4.100      2.51847e+02       4.09671e+00      -3.07727e+00       8.31478e-04       6.00993e+02
  4.200      2.51075e+02       4.35168e+00      -2.80801e+00       8.22803e-04       5.92899e+02
  4.300      2.50257e+02       4.62996e+00      -2.54144e+00       8.14337e-04       5.84888e+02
  4.400      2.49404e+02       4.91865e+00      -2.28312e+00       8.06047e-04       5.76959e+02
  4.500      2.48523e+02       5.20483e+00      -2.03859e+00       7.97898e-04       5.69111e+02
  4.600      2.47626e+02       5.47558e+00      -1.81339e+00       7.89861e-04       5.61343e+02
  4.700      2.46719e+02       5.71799e+00      -1.61307e+00       7.81904e-04       5.53654e+02
  4.800      2.45813e+02       5.91984e+00      -1.44303e+00       7.73998e-04       5.46043e+02
  4.900      2.44917e+02       6.08339e+00      -1.30570e+00       7.66116e-04       5.38511e+02
  5.000      2.44037e+02       6.22468e+00      -1.20064e+00       7.58234e-04       5.31056e+02
  5.100      2.43182e+02       6.36024e+00      -1.12736e+00       7.50332e-04       5.23680e+02
  5.200      2.42359e+02       6.50662e+00      -1.08533e+00       7.42386e-04       5.16382e+02
  5.300      2.41578e+02       6.68037e+00      -1.07402e+00       7.34376e-04       5.09164e+02
  5.400      2.40845e+02       6.89804e+00      -1.09292e+00       7.26282e-04       5.02025e+02
  5.500      2.40168e+02       7.17564e+00      -1.14031e+00       7.18087e-04       4.94965e+02
  5.600      2.39543e+02       7.52387e+00      -1.20270e+00       7.09808e-04       4.87985e+02
  5.700      2.38960e+02       7.95044e+00      -1.25993e+00       7.01478e-04       4.81085e+02
  5.800      2.38411e+02       8.46300e+00      -1.29176e+00       6.93129e-04       4.74265e+02
  5.900      2.37884e+02       9.06923e+00      -1.27794e+00       6.84792e-04       4.67526e+02
  6.000      2.37371e+02       9.77677e+00      -1.19824e+00       6.76497e-04       4.60867e+02
  6.100      2.36862e+02       1.05933e+01      -1.03241e+00       6.68274e-04       4.54288e+02
  6.200      2.36347e+02       1.15262e+01      -7.60507e-01       6.60150e-04       4.47790e+02
  6.300      2.35820e+02       1.25661e+01      -3.79473e-01       6.52142e-04       4.41372e+02
  6.400      2.35279e+02       1.36786e+01       8.81537e-02       6.44254e-04       4.35033e+02
  6.500      2.34722e+02       1.48267e+01       6.17697e-01       6.36485e-04       4.28771e+02
  6.600      2.34149e+02       1.59740e+01       1.18448e+00       6.28839e-04       4.22584e+02
  6.700      2.33557e+02       1.70836e+01       1.76383e+00       6.21316e-04       4.16473e+02
  6.800      2.32945e+02       1.81189e+01       2.33107e+00       6.13916e-04       4.10434e+02
  6.900      2.32311e+02       1.90432e+01       2.86151e+00       6.06642e-04       4.04468e+02
  7.000      2.31654e+02       1.98198e+01       3.33055e+00       5.99495e-04       3.98573e+02
  7.100      2.30975e+02       2.04261e+01       3.72138e+00       5.92470e-04       3.92747e+02
  7.200      2.30276e+02       2.08664e+01       4.03262e+00       5.85557e-04       3.86990e+02
  7.300      2.29562e+02       2.11486e+01       4.26475e+00       5.78743e-04       3.81300e+02
  7.400      2.28836e+02       2.12803e+01       4.41819e+00       5.72015e-04       3.75677e+02
  7.500      2.28103e+02       2.12693e+01       4.49342e+00       5.65364e-04       3.70118e+02
  7.600      2.27366e+02       2.11232e+01       4.49087e+00       5.58776e-04       3.64624e+02
  7.700      2.26629e+02       2.08498e+01       4.41101e+00       5.52242e-04       3.59193e+02
  7.800      2.25897e+02       2.04569e+01       4.25429e+00       5.45751e-04       3.53824e+02
  7.900      2.25173e+02       1.99521e+01       4.02120e+00       5.39294e-04       3.48516e+02
  8.000      2.24462e+02       1.93475e+01       3.71628e+00       5.32858e-04       3.43269e+02
  8.100      2.23771e+02       1.86628e+01       3.35130e+00       5.26430e-04       3.38085e+02
  8.200      2.23107e+02       1.79185e+01       2.93876e+00       5.19997e-04       3.32963e+02
  8.300      2.22478e+02       1.71349e+01       2.49117e+00       5.13546e-04       3.27906e+02
  8.400      2.21891e+02       1.63326e+01       2.02104e+00       5.07065e-04       3.22913e+02
  8.500      2.21354e+02       1.55320e+01       1.54087e+00       5.00542e-04       3.17987e+02
  8.600      2.20872e+02       1.47536e+01       1.06317e+00       4.93966e-04       3.13127e+02
  8.700      2.20454e+02       1.40178e+01       6.00449e-01       4.87328e-04       3.08334e+02
  8.800      2.20107e+02       1.33450e+01       1.65215e-01       4.80616e-04       3.03609e+02
  8.900      2.19839e+02       1.27558e+01      -2.30054e-01       4.73824e-04       2.98953e+02
  9.000      2.19650e+02       1.22625e+01      -5.78097e-01       4.66952e-04       2.94365e+02
  9.100      2.19536e+02       1.18613e+01      -8.82438e-01       4.60021e-04       2.89845e+02
  9.200      2.19488e+02       1.15463e+01      -1.14794e+00       4.53055e-04       2.85393e+02
  9.300      2.19498e+02       1.13116e+01      -1.37949e+00       4.46074e-04       2.81009e+02
  9.400      2.19558e+02       1.11511e+01      -1.58194e+00       4.39100e-04       2.76691e+02
  9.500      2.19661e+02       1.10591e+01      -1.76018e+00       4.32152e-04       2.72440e+02
  9.600      2.19798e+02       1.10295e+01      -1.91905e+00       4.25248e-04       2.68255e+02
  9.700      2.19961e+02       1.10564e+01      -2.06345e+00       4.18407e-04       2.64135e+02
  9.800      2.20143e+02       1.11340e+01      -2.19824e+00       4.11644e-04       2.60081e+02
  9.900      2.20336e+02       1.12562e+01      -2.32828e+00       4.04974e-04       2.56091e+02
 10.000      2.20531e+02       1.14173e+01      -2.45845e+00       3.98413e-04       2.52165e+02
 10.100      2.20721e+02       1.16111e+01      -2.59351e+00       3.91972e-04       2.48303e+02
 10.200      2.20902e+02       1.18325e+01      -2.73495e+00       3.85658e-04       2.44503e+02
 10.300      2.21073e+02       1.20766e+01      -2.88046e+00       3.79468e-04       2.40764e+02
 10.400      2.21233e+02       1.23389e+01      -3.02749e+00       3.73399e-04       2.37086e+02
 10.500      2.21384e+02       1.26145e+01      -3.17351e+00       3.67449e-04       2.33467e+02
 10.600      2.21524e+02       1.28990e+01      -3.31599e+00       3.61615e-04       2.29905e+02
 10.700      2.21653e+02       1.31874e+01      -3.45239e+00       3.55895e-04       2.26401e+02
 10.800      2.21772e+02       1.34753e+01      -3.58018e+00       3.50286e-04       2.22952e+02
 10.900      2.21879e+02       1.37579e+01      -3.69681e+00       3.44787e-04       2.19558e+02
 11.000      2.21975e+02       1.40305e+01      -3.79976e+00       3.39394e-04       2.16217e+02
 11.100      2.22060e+02       1.42884e+01      -3.88648e+00       3.34105e-04       2.12929e+02
 11.200      2.22133e+02       1.45270e+01      -3.95444e+00       3.28919e-04       2.09693e+02
 11.300      2.22195e+02       1.47416e+01      -4.00112e+00       3.23833e-04       2.06508e+02
 11.400      2.22244e+02       1.49275e+01      -4.02396e+00       3.18845e-04       2.03372e+02
 11.500      2.22281e+02       1.50801e+01      -4.02044e+00       3.13953e-04       2.00286e+02
 11.600      2.22306e+02       1.51956e+01      -3.98878e+00       3.09155e-04       1.97247e+02
 11.700      2.22320e+02       1.52756e+01      -3.93132e+00       3.04448e-04       1.94255e+02
 11.800      2.22321e+02       1.53237e+01      -3.85172e+00       2.99829e-04       1.91309e+02
 11.900      2.22313e+02       1.53431e+01      -3.75365e+00       2.95294e-04       1.88409e+02
 12.000      2.22294e+02       1.53372e+01      -3.64078e+00       2.90842e-04       1.85552e+02
 12.100      2.22265e+02       1.53095e+01      -3.51679e+00       2.86470e-04       1.82739e+02
 12.200      2.22228e+02       1.52633e+01      -3.38534e+00       2.82174e-04       1.79969e+02
 12.300      2.22182e+02       1.52020e+01      -3.25010e+00       2.77952e-04       1.77240e+02
 12.400      2.22128e+02       1.51289e+01      -3.11474e+00       2.73803e-04       1.74551e+02
 12.500      2.22067e+02       1.50475e+01      -2.98294e+00       2.69723e-04       1.71903e+02
 12.600      2.21999e+02       1.49612e+01      -2.85836e+00       2.65710e-04       1.69294e+02
 12.700      2.21925e+02       1.48734e+01      -2.74468e+00       2.61763e-04       1.66723e+02
 12.800      2.21846e+02       1.47873e+01      -2.64556e+00       2.57878e-04       1.64191e+02
 12.900      2.21761e+02       1.47065e+01      -2.56468e+00       2.54055e-04       1.61695e+02
 13.000      2.21672e+02       1.46342e+01      -2.50571e+00       2.50291e-04       1.59235e+02
 13.100      2.21580e+02       1.45740e+01      -2.47231e+00       2.46584e-04       1.56811e+02
 13.200      2.21484e+02       1.45291e+01      -2.46816e+00       2.42933e-04       1.54422e+02
 13.300      2.21385e+02       1.45030e+01      -2.49692e+00       2.39335e-04       1.52067e+02
 13.400      2.21284e+02       1.44990e+01      -2.56227e+00       2.35790e-04       1.49746e+02
 13.500      2.21181e+02       1.45192e+01      -2.66620e+00       2.32295e-04       1.47458e+02
 13.600      2.21077e+02       1.45616e+01      -2.80585e+00       2.28850e-04       1.45203e+02
 13.700      2.20971e+02       1.46236e+01      -2.97747e+00       2.25455e-04       1.42981e+02
 13.800      2.20864e+02       1.47026e+01      -3.17736e+00       2.22109e-04       1.40790e+02
 13.900      2.20754e+02       1.47959e+01      -3.40177e+00       2.18811e-04       1.38631e+02
 14.000      2.20643e+02       1.49010e+01      -3.64698e+00       2.15561e-04       1.36503e+02
 14.100      2.20531e+02       1.50152e+01      -3.90926e+00       2.12359e-04       1.34407e+02
 14.200      2.20417e+02       1.51359e+01      -4.18488e+00       2.09203e-04       1.32341e+02
 14.300      2.20301e+02       1.52604e+01      -4.47011e+00       2.06094e-04       1.30306e+02
 14.400      2.20183e+02       1.53862e+01      -4.76123e+00       2.03031e-04       1.28300e+02
 14.500      2.20064e+02       1.55105e+01      -5.05449e+00       2.00012e-04       1.26325e+02
 14.600      2.19943e+02       1.56309e+01      -5.34618e+00       1.97039e-04       1.24378e+02
 14.700      2.19821e+02       1.57445e+01      -5.63256e+00       1.94110e-04       1.22461e+02
 14.800      2.19696e+02       1.58489e+01      -5.90991e+00       1.91224e-04       1.20572e+02
 14.900      2.19570e+02       1.59414e+01      -6.17449e+00       1.88382e-04       1.18712e+02
 15.000      2.19442e+02       1.60193e+01      -6.42257e+00       1.85582e-04       1.16879e+02
 15.100      2.19313e+02       1.60801e+01      -6.65044e+00       1.82824e-04       1.15075e+02
 15.200      2.19182e+02       1.61211e+01      -6.85435e+00       1.80108e-04       1.13297e+02
 15.300      2.19049e+02       1.61397e+01      -7.03058e+00       1.77433e-04       1.11547e+02
 15.400      2.18914e+02       1.61332e+01      -7.17540e+00       1.74798e-04       1.09823e+02
 15.500      2.18778e+02       1.60991e+01      -7.28508e+00       1.72204e-04       1.08126e+02
 15.600      2.18640e+02       1.60347e+01      -7.35589e+00       1.69649e-04       1.06454e+02
 15.700      2.18500e+02       1.59373e+01      -7.38410e+00       1.67133e-04       1.04808e+02
 15.800      2.18359e+02       1.58044e+01      -7.36598e+00       1.64655e-04       1.03188e+02
 15.900      2.18215e+02       1.56334e+01      -7.29781e+00       1.62216e-04       1.01592e+02
 16.000      2.18070e+02       1.54215e+01      -7.17585e+00       1.59814e-04       1.00022e+02
 16.100      2.17924e+02       1.51674e+01      -6.99781e+00       1.57450e-04       9.84754e+01
 16.200      2.17776e+02       1.48748e+01      -6.76734e+00       1.55121e-04       9.69529e+01
 16.300      2.17627e+02       1.45487e+01      -6.48967e+00       1.52827e-04       9.54540e+01
 16.400      2.17478e+02       1.41941e+01      -6.17001e+00       1.50567e-04       9.39781e+01
 16.500      2.17329e+02       1.38159e+01      -5.81358e+00       1.48340e-04       9.25247e+01
 16.600      2.17181e+02       1.34193e+01      -5.42560e+00       1.46145e-04       9.10936e+01
 16.700      2.17034e+02       1.30091e+01      -5.01129e+00       1.43981e-04       8.96842e+01
 16.800      2.16889e+02       1.25905e+01      -4.57587e+00       1.41848e-04       8.82962e+01
 16.900      2.16746e+02       1.21683e+01      -4.12455e+00       1.39744e-04       8.69292e+01
 17.000      2.16606e+02       1.17477e+01      -3.66255e+00       1.37668e-04       8.55828e+01
 17.100      2.16469e+02       1.13337e+01      -3.19509e+00       1.35621e-04       8.42566e+01
 17.200      2.16336e+02       1.09311e+01      -2.72738e+00       1.33600e-04       8.29502e+01
 17.300      2.16207e+02       1.05451e+01      -2.26466e+00       1.31606e-04       8.16634e+01
 17.400      2.16082e+02       1.01807e+01      -1.81213e+00       1.29638e-04       8.03957e+01
 17.500      2.15963e+02       9.84280e+00      -1.37500e+00       1.27694e-04       7.91468e+01
 17.600      2.15850e+02       9.53647e+00      -9.58505e-01       1.25775e-04       7.79164e+01
 17.700      2.15742e+02       9.26670e+00      -5.67856e-01       1.23880e-04       7.67042e+01
 17.800      2.15642e+02       9.03851e+00      -2.08279e-01       1.22008e-04       7.55099e+01
 17.900      2.15549e+02       8.85689e+00       1.15022e-01       1.20159e-04       7.43330e+01
 18.000      2.15463e+02       8.72686e+00       3.96822e-01       1.18331e-04       7.31734e+01
 18.100      2.15385e+02       8.65343e+00       6.31902e-01       1.16525e-04       7.20307e+01
 18.200      2.15317e+02       8.64159e+00       8.15046e-01       1.14740e-04       7.09047e+01
 18.300      2.15257e+02       8.69634e+00       9.41043e-01       1.12976e-04       6.97950e+01
 18.400      2.15207e+02       8.81977e+00       1.00736e+00       1.11232e-04       6.87016e+01
 18.500      2.15166e+02       9.00719e+00       1.01766e+00       1.09508e-04       6.76241e+01
 18.600      2.15133e+02       9.25296e+00       9.76491e-01       1.07806e-04       6.65627e+01
 18.700      2.15108e+02       9.55145e+00       8.88388e-01       1.06124e-04       6.55171e+01
 18.800      2.15091e+02       9.89700e+00       7.57900e-01       1.04465e-04       6.44874e+01
 18.900      2.15081e+02       1.02840e+01       5.89565e-01       1.02827e-04       6.34735e+01
 19.000      2.15077e+02       1.07068e+01       3.87928e-01       1.01212e-04       6.24752e+01
 19.100      2.15079e+02       1.11597e+01       1.57532e-01       9.96187e-05       6.14924e+01
 19.200      2.15087e+02       1.16371e+01      -9.70796e-02       9.80481e-05       6.05251e+01
 19.300      2.15100e+02       1.21334e+01      -3.71359e-01       9.65003e-05       5.95732e+01
 19.400      2.15117e+02       1.26429e+01      -6.60775e-01       9.49753e-05       5.86364e+01
 19.500      2.15138e+02       1.31600e+01      -9.60777e-01       9.34733e-05       5.77147e+01
 19.600      2.15163e+02       1.36791e+01      -1.26682e+00       9.19942e-05       5.68080e+01
 19.700      2.15190e+02       1.41945e+01      -1.57437e+00       9.05384e-05       5.59161e+01
 19.800      2.15220e+02       1.47005e+01      -1.87887e+00       8.91058e-05       5.50390e+01
 19.900      2.15252e+02       1.51915e+01      -2.17580e+00       8.76963e-05       5.41765e+01
 20.000      2.15286e+02       1.56620e+01      -2.46059e+00       8.63101e-05       5.33284e+01
 20.100      2.15320e+02       1.61061e+01      -2.72872e+00       8.49471e-05       5.24946e+01
 20.200      2.15355e+02       1.65184e+01      -2.97563e+00       8.36072e-05       5.16749e+01
 20.300      2.15389e+02       1.68932e+01      -3.19678e+00       8.22905e-05       5.08693e+01
