# Data Source: NASA GEOS5 Near-Real-Time
# Model Time = 2010-01-08 18:00:00
# Location = [  39.7393, -104.9900 ]
# Fields = [ Z(km), T(K), U(m/s), V(m/s), R(g/cm3), P(mbar) ]
# Ground Height = 1.589
  0.000      2.80474e+02       1.80854e+00       1.48685e+00       1.27731e-03       1.02818e+03
  0.100      2.79810e+02       1.80777e+00       1.47270e+00       1.26472e-03       1.01564e+03
  0.200      2.79137e+02       1.79266e+00       1.45055e+00       1.25234e-03       1.00328e+03
  0.300      2.78463e+02       1.77451e+00       1.42672e+00       1.24010e-03       9.91077e+02
  0.400      2.77793e+02       1.76466e+00       1.40750e+00       1.22795e-03       9.79007e+02
  0.500      2.77136e+02       1.77197e+00       1.39734e+00       1.21583e-03       9.67047e+02
  0.600      2.76497e+02       1.77681e+00       1.37874e+00       1.20371e-03       9.55200e+02
  0.700      2.75880e+02       1.74341e+00       1.32334e+00       1.19159e-03       9.43476e+02
  0.800      2.75258e+02       1.67580e+00       1.26165e+00       1.17961e-03       9.31877e+02
  0.900      2.74575e+02       1.61208e+00       1.27251e+00       1.16797e-03       9.20396e+02
  1.000      2.73834e+02       1.57515e+00       1.34023e+00       1.15666e-03       9.09028e+02
  1.100      2.73119e+02       1.56674e+00       1.32537e+00       1.14533e-03       8.97766e+02
  1.200      2.72474e+02       1.56488e+00       1.17695e+00       1.13377e-03       8.86610e+02
  1.300      2.71854e+02       1.49776e+00       1.06028e+00       1.12220e-03       8.75566e+02
  1.400      2.71221e+02       1.32722e+00       1.13240e+00       1.11078e-03       8.64641e+02
  1.500      2.70646e+02       1.20394e+00       1.37465e+00       1.09923e-03       8.53833e+02
  1.600      2.70220e+02       1.31868e+00       1.71278e+00       1.08717e-03       8.43138e+02
  1.700      2.69961e+02       1.67225e+00       2.01734e+00       1.07456e-03       8.32558e+02
  1.800      2.69830e+02       2.13519e+00       2.12150e+00       1.06158e-03       8.22104e+02
  1.900      2.69781e+02       2.60158e+00       1.90293e+00       1.04844e-03       8.11779e+02
  2.000      2.69754e+02       3.01250e+00       1.32073e+00       1.03538e-03       8.01584e+02
  2.100      2.69689e+02       3.32238e+00       3.59529e-01       1.02262e-03       7.91517e+02
  2.200      2.69530e+02       3.54018e+00      -8.86349e-01       1.01037e-03       7.81571e+02
  2.300      2.69224e+02       3.69638e+00      -2.27944e+00       9.98797e-04       7.71743e+02
  2.400      2.68758e+02       3.81703e+00      -3.70232e+00       9.87928e-04       7.62024e+02
  2.500      2.68183e+02       3.92119e+00      -5.06878e+00       9.77554e-04       7.52409e+02
  2.600      2.67552e+02       4.02697e+00      -6.30364e+00       9.67463e-04       7.42891e+02
  2.700      2.66896e+02       4.14943e+00      -7.40458e+00       9.57541e-04       7.33467e+02
  2.800      2.66233e+02       4.30203e+00      -8.40698e+00       9.47718e-04       7.24139e+02
  2.900      2.65585e+02       4.49093e+00      -9.34951e+00       9.37919e-04       7.14908e+02
  3.000      2.64982e+02       4.70005e+00      -1.02798e+01       9.28044e-04       7.05777e+02
  3.100      2.64455e+02       4.90900e+00      -1.12464e+01       9.17997e-04       6.96746e+02
  3.200      2.64001e+02       5.08966e+00      -1.22705e+01       9.07792e-04       6.87817e+02
  3.300      2.63569e+02       5.20284e+00      -1.33327e+01       8.97603e-04       6.78986e+02
  3.400      2.63108e+02       5.21034e+00      -1.44105e+01       8.87606e-04       6.70250e+02
  3.500      2.62598e+02       5.10881e+00      -1.54687e+01       8.77862e-04       6.61607e+02
  3.600      2.62048e+02       4.92584e+00      -1.64616e+01       8.68341e-04       6.53060e+02
  3.700      2.61467e+02       4.68938e+00      -1.73457e+01       8.59008e-04       6.44609e+02
  3.800      2.60860e+02       4.41795e+00      -1.81129e+01       8.49845e-04       6.36251e+02
  3.900      2.60228e+02       4.12358e+00      -1.87799e+01       8.40839e-04       6.27983e+02
  4.000      2.59572e+02       3.81839e+00      -1.93636e+01       8.31981e-04       6.19802e+02
  4.100      2.58893e+02       3.51762e+00      -1.98822e+01       8.23266e-04       6.11706e+02
  4.200      2.58192e+02       3.23875e+00      -2.03544e+01       8.14691e-04       6.03695e+02
  4.300      2.57469e+02       2.99861e+00      -2.07988e+01       8.06254e-04       5.95769e+02
  4.400      2.56725e+02       2.80124e+00      -2.12307e+01       7.97944e-04       5.87926e+02
  4.500      2.55967e+02       2.63897e+00      -2.16623e+01       7.89742e-04       5.80163e+02
  4.600      2.55198e+02       2.50378e+00      -2.21057e+01       7.81629e-04       5.72479e+02
  4.700      2.54422e+02       2.39328e+00      -2.25680e+01       7.73593e-04       5.64871e+02
  4.800      2.53642e+02       2.31386e+00      -2.30484e+01       7.65627e-04       5.57340e+02
  4.900      2.52861e+02       2.27269e+00      -2.35455e+01       7.57725e-04       5.49888e+02
  5.000      2.52077e+02       2.27473e+00      -2.40563e+01       7.49888e-04       5.42515e+02
  5.100      2.51286e+02       2.31655e+00      -2.45714e+01       7.42133e-04       5.35220e+02
  5.200      2.50478e+02       2.39271e+00      -2.50799e+01       7.34485e-04       5.28001e+02
  5.300      2.49646e+02       2.49740e+00      -2.55711e+01       7.26963e-04       5.20857e+02
  5.400      2.48794e+02       2.61910e+00      -2.60387e+01       7.19549e-04       5.13787e+02
  5.500      2.47938e+02       2.74166e+00      -2.64792e+01       7.12201e-04       5.06789e+02
  5.600      2.47090e+02       2.84876e+00      -2.68896e+01       7.04874e-04       4.99861e+02
  5.700      2.46264e+02       2.92687e+00      -2.72677e+01       6.97534e-04       4.93002e+02
  5.800      2.45463e+02       2.97281e+00      -2.76151e+01       6.90174e-04       4.86213e+02
  5.900      2.44688e+02       2.98584e+00      -2.79345e+01       6.82796e-04       4.79497e+02
  6.000      2.43939e+02       2.96521e+00      -2.82283e+01       6.75404e-04       4.72854e+02
  6.100      2.43218e+02       2.90933e+00      -2.85074e+01       6.67995e-04       4.66285e+02
  6.200      2.42527e+02       2.81531e+00      -2.87957e+01       6.60568e-04       4.59791e+02
  6.300      2.41868e+02       2.68011e+00      -2.91182e+01       6.53117e-04       4.53369e+02
  6.400      2.41243e+02       2.50100e+00      -2.94995e+01       6.45641e-04       4.47020e+02
  6.500      2.40650e+02       2.28251e+00      -2.99577e+01       6.38145e-04       4.40744e+02
  6.600      2.40085e+02       2.03709e+00      -3.05030e+01       6.30642e-04       4.34540e+02
  6.700      2.39545e+02       1.77756e+00      -3.11455e+01       6.23146e-04       4.28410e+02
  6.800      2.39025e+02       1.51646e+00      -3.18949e+01       6.15671e-04       4.22351e+02
  6.900      2.38519e+02       1.25792e+00      -3.27466e+01       6.08233e-04       4.16366e+02
  7.000      2.38020e+02       9.96150e-01      -3.36795e+01       6.00852e-04       4.10453e+02
  7.100      2.37520e+02       7.24802e-01      -3.46717e+01       5.93548e-04       4.04612e+02
  7.200      2.37012e+02       4.37553e-01      -3.57011e+01       5.86340e-04       3.98843e+02
  7.300      2.36491e+02       1.34041e-01      -3.67476e+01       5.79239e-04       3.93146e+02
  7.400      2.35956e+02      -1.72851e-01      -3.77953e+01       5.72242e-04       3.87519e+02
  7.500      2.35409e+02      -4.68460e-01      -3.88287e+01       5.65345e-04       3.81960e+02
  7.600      2.34850e+02      -7.38123e-01      -3.98325e+01       5.58542e-04       3.76468e+02
  7.700      2.34279e+02      -9.68791e-01      -4.07912e+01       5.51831e-04       3.71041e+02
  7.800      2.33696e+02      -1.16240e+00      -4.16883e+01       5.45213e-04       3.65679e+02
  7.900      2.33098e+02      -1.32903e+00      -4.25064e+01       5.38693e-04       3.60380e+02
  8.000      2.32480e+02      -1.47884e+00      -4.32285e+01       5.32277e-04       3.55145e+02
  8.100      2.31841e+02      -1.62197e+00      -4.38373e+01       5.25971e-04       3.49972e+02
  8.200      2.31178e+02      -1.76685e+00      -4.43265e+01       5.19775e-04       3.44861e+02
  8.300      2.30494e+02      -1.91501e+00      -4.47318e+01       5.13683e-04       3.39811e+02
  8.400      2.29793e+02      -2.06631e+00      -4.50996e+01       5.07684e-04       3.34820e+02
  8.500      2.29078e+02      -2.22061e+00      -4.54760e+01       5.01767e-04       3.29888e+02
  8.600      2.28352e+02      -2.37776e+00      -4.59074e+01       4.95924e-04       3.25014e+02
  8.700      2.27619e+02      -2.53602e+00      -4.64297e+01       4.90146e-04       3.20196e+02
  8.800      2.26882e+02      -2.68727e+00      -4.70383e+01       4.84425e-04       3.15434e+02
  8.900      2.26144e+02      -2.82176e+00      -4.77178e+01       4.78754e-04       3.10727e+02
  9.000      2.25408e+02      -2.92975e+00      -4.84533e+01       4.73127e-04       3.06076e+02
  9.100      2.24678e+02      -3.00150e+00      -4.92295e+01       4.67537e-04       3.01480e+02
  9.200      2.23956e+02      -3.02765e+00      -5.00300e+01       4.61978e-04       2.96938e+02
  9.300      2.23247e+02      -3.00326e+00      -5.08235e+01       4.56441e-04       2.92450e+02
  9.400      2.22557e+02      -2.92617e+00      -5.15693e+01       4.50917e-04       2.88018e+02
  9.500      2.21890e+02      -2.79426e+00      -5.22267e+01       4.45396e-04       2.83639e+02
  9.600      2.21253e+02      -2.60543e+00      -5.27551e+01       4.39869e-04       2.79315e+02
  9.700      2.20651e+02      -2.35754e+00      -5.31135e+01       4.34327e-04       2.75046e+02
  9.800      2.20087e+02      -2.05074e+00      -5.32718e+01       4.28767e-04       2.70831e+02
  9.900      2.19560e+02      -1.69452e+00      -5.32430e+01       4.23194e-04       2.66670e+02
 10.000      2.19065e+02      -1.30075e+00      -5.30515e+01       4.17620e-04       2.62564e+02
 10.100      2.18597e+02      -8.81315e-01      -5.27216e+01       4.12054e-04       2.58512e+02
 10.200      2.18153e+02      -4.48117e-01      -5.22776e+01       4.06506e-04       2.54513e+02
 10.300      2.17729e+02      -1.30311e-02      -5.17438e+01       4.00986e-04       2.50569e+02
 10.400      2.17321e+02       4.13339e-01      -5.11409e+01       3.95499e-04       2.46678e+02
 10.500      2.16936e+02       8.28433e-01      -5.04669e+01       3.90037e-04       2.42840e+02
 10.600      2.16583e+02       1.23276e+00      -4.97112e+01       3.84586e-04       2.39056e+02
 10.700      2.16272e+02       1.62683e+00      -4.88633e+01       3.79131e-04       2.35326e+02
 10.800      2.16010e+02       2.01118e+00      -4.79124e+01       3.73660e-04       2.31650e+02
 10.900      2.15809e+02       2.38632e+00      -4.68480e+01       3.68161e-04       2.28028e+02
 11.000      2.15676e+02       2.75277e+00      -4.56594e+01       3.62623e-04       2.24460e+02
 11.100      2.15617e+02       3.11219e+00      -4.43473e+01       3.57043e-04       2.20946e+02
 11.200      2.15627e+02       3.46912e+00      -4.29410e+01       3.51435e-04       2.17486e+02
 11.300      2.15698e+02       3.82858e+00      -4.14743e+01       3.45818e-04       2.14080e+02
 11.400      2.15824e+02       4.19556e+00      -3.99812e+01       3.40208e-04       2.10730e+02
 11.500      2.15996e+02       4.57508e+00      -3.84953e+01       3.34621e-04       2.07435e+02
 11.600      2.16209e+02       4.97213e+00      -3.70506e+01       3.29072e-04       2.04195e+02
 11.700      2.16453e+02       5.39172e+00      -3.56809e+01       3.23573e-04       2.01011e+02
 11.800      2.16724e+02       5.83799e+00      -3.44181e+01       3.18140e-04       1.97882e+02
 11.900      2.17009e+02       6.30525e+00      -3.32728e+01       3.12785e-04       1.94807e+02
 12.000      2.17297e+02       6.78177e+00      -3.22420e+01       3.07524e-04       1.91785e+02
 12.100      2.17576e+02       7.25567e+00      -3.13226e+01       3.02370e-04       1.88813e+02
 12.200      2.17835e+02       7.71508e+00      -3.05117e+01       2.97335e-04       1.85890e+02
 12.300      2.18061e+02       8.14817e+00      -2.98062e+01       2.92430e-04       1.83013e+02
 12.400      2.18244e+02       8.54305e+00      -2.92029e+01       2.87666e-04       1.80182e+02
 12.500      2.18369e+02       8.88789e+00      -2.86988e+01       2.83053e-04       1.77395e+02
 12.600      2.18427e+02       9.17081e+00      -2.82909e+01       2.78599e-04       1.74650e+02
 12.700      2.18410e+02       9.38472e+00      -2.79737e+01       2.74306e-04       1.71945e+02
 12.800      2.18327e+02       9.53548e+00      -2.77354e+01       2.70160e-04       1.69281e+02
 12.900      2.18188e+02       9.63116e+00      -2.75630e+01       2.66142e-04       1.66658e+02
 13.000      2.18004e+02       9.67984e+00      -2.74437e+01       2.62236e-04       1.64074e+02
 13.100      2.17786e+02       9.68957e+00      -2.73645e+01       2.58428e-04       1.61529e+02
 13.200      2.17544e+02       9.66844e+00      -2.73124e+01       2.54702e-04       1.59024e+02
 13.300      2.17290e+02       9.62450e+00      -2.72746e+01       2.51045e-04       1.56558e+02
 13.400      2.17034e+02       9.56583e+00      -2.72381e+01       2.47443e-04       1.54130e+02
 13.500      2.16787e+02       9.50049e+00      -2.71899e+01       2.43884e-04       1.51740e+02
 13.600      2.16560e+02       9.43654e+00      -2.71173e+01       2.40356e-04       1.49387e+02
 13.700      2.16358e+02       9.38000e+00      -2.70119e+01       2.36851e-04       1.47072e+02
 13.800      2.16180e+02       9.33307e+00      -2.68739e+01       2.33371e-04       1.44792e+02
 13.900      2.16024e+02       9.29754e+00      -2.67047e+01       2.29918e-04       1.42547e+02
 14.000      2.15886e+02       9.27521e+00      -2.65054e+01       2.26493e-04       1.40334e+02
 14.100      2.15765e+02       9.26786e+00      -2.62773e+01       2.23099e-04       1.38153e+02
 14.200      2.15656e+02       9.27728e+00      -2.60216e+01       2.19736e-04       1.36002e+02
 14.300      2.15559e+02       9.30525e+00      -2.57395e+01       2.16407e-04       1.33881e+02
 14.400      2.15469e+02       9.35358e+00      -2.54324e+01       2.13113e-04       1.31788e+02
 14.500      2.15385e+02       9.42404e+00      -2.51014e+01       2.09854e-04       1.29722e+02
 14.600      2.15303e+02       9.51843e+00      -2.47477e+01       2.06633e-04       1.27683e+02
 14.700      2.15221e+02       9.63853e+00      -2.43727e+01       2.03451e-04       1.25669e+02
 14.800      2.15137e+02       9.78584e+00      -2.39776e+01       2.00309e-04       1.23679e+02
 14.900      2.15048e+02       9.95848e+00      -2.35642e+01       1.97207e-04       1.21714e+02
 15.000      2.14957e+02       1.01524e+01      -2.31347e+01       1.94148e-04       1.19775e+02
 15.100      2.14862e+02       1.03634e+01      -2.26914e+01       1.91133e-04       1.17863e+02
 15.200      2.14765e+02       1.05875e+01      -2.22365e+01       1.88164e-04       1.15979e+02
 15.300      2.14664e+02       1.08206e+01      -2.17722e+01       1.85241e-04       1.14125e+02
 15.400      2.14561e+02       1.10584e+01      -2.13007e+01       1.82366e-04       1.12299e+02
 15.500      2.14456e+02       1.12970e+01      -2.08242e+01       1.79540e-04       1.10505e+02
 15.600      2.14348e+02       1.15321e+01      -2.03450e+01       1.76763e-04       1.08741e+02
 15.700      2.14238e+02       1.17598e+01      -1.98652e+01       1.74037e-04       1.07009e+02
 15.800      2.14126e+02       1.19758e+01      -1.93871e+01       1.71361e-04       1.05309e+02
 15.900      2.14013e+02       1.21762e+01      -1.89130e+01       1.68738e-04       1.03642e+02
 16.000      2.13898e+02       1.23567e+01      -1.84449e+01       1.66167e-04       1.02008e+02
 16.100      2.13782e+02       1.25132e+01      -1.79852e+01       1.63648e-04       1.00407e+02
 16.200      2.13665e+02       1.26421e+01      -1.75359e+01       1.61183e-04       9.88405e+01
 16.300      2.13548e+02       1.27426e+01      -1.70976e+01       1.58768e-04       9.73063e+01
 16.400      2.13430e+02       1.28159e+01      -1.66701e+01       1.56402e-04       9.58031e+01
 16.500      2.13312e+02       1.28628e+01      -1.62533e+01       1.54081e-04       9.43294e+01
 16.600      2.13195e+02       1.28845e+01      -1.58471e+01       1.51803e-04       9.28837e+01
 16.700      2.13079e+02       1.28820e+01      -1.54512e+01       1.49566e-04       9.14647e+01
 16.800      2.12964e+02       1.28562e+01      -1.50656e+01       1.47366e-04       9.00710e+01
 16.900      2.12852e+02       1.28083e+01      -1.46900e+01       1.45202e-04       8.87013e+01
 17.000      2.12741e+02       1.27393e+01      -1.43244e+01       1.43071e-04       8.73545e+01
 17.100      2.12634e+02       1.26502e+01      -1.39684e+01       1.40971e-04       8.60292e+01
 17.200      2.12531e+02       1.25419e+01      -1.36221e+01       1.38901e-04       8.47246e+01
 17.300      2.12431e+02       1.24157e+01      -1.32853e+01       1.36859e-04       8.34394e+01
 17.400      2.12335e+02       1.22724e+01      -1.29577e+01       1.34842e-04       8.21728e+01
 17.500      2.12244e+02       1.21131e+01      -1.26392e+01       1.32849e-04       8.09236e+01
 17.600      2.12158e+02       1.19389e+01      -1.23297e+01       1.30878e-04       7.96910e+01
 17.700      2.12078e+02       1.17508e+01      -1.20290e+01       1.28929e-04       7.84742e+01
 17.800      2.12004e+02       1.15497e+01      -1.17370e+01       1.26999e-04       7.72724e+01
 17.900      2.11936e+02       1.13368e+01      -1.14535e+01       1.25086e-04       7.60846e+01
 18.000      2.11875e+02       1.11131e+01      -1.11783e+01       1.23191e-04       7.49103e+01
 18.100      2.11822e+02       1.08795e+01      -1.09113e+01       1.21311e-04       7.37486e+01
 18.200      2.11777e+02       1.06372e+01      -1.06523e+01       1.19446e-04       7.25990e+01
 18.300      2.11739e+02       1.03871e+01      -1.04012e+01       1.17594e-04       7.14608e+01
 18.400      2.11711e+02       1.01303e+01      -1.01578e+01       1.15754e-04       7.03334e+01
 18.500      2.11692e+02       9.86779e+00      -9.92195e+00       1.13926e-04       6.92163e+01
 18.600      2.11682e+02       9.60061e+00      -9.69350e+00       1.12110e-04       6.81099e+01
 18.700      2.11680e+02       9.32975e+00      -9.47231e+00       1.10308e-04       6.70147e+01
 18.800      2.11687e+02       9.05620e+00      -9.25819e+00       1.08522e-04       6.59315e+01
 18.900      2.11701e+02       8.78097e+00      -9.05101e+00       1.06752e-04       6.48608e+01
 19.000      2.11723e+02       8.50506e+00      -8.85059e+00       1.05001e-04       6.38031e+01
 19.100      2.11751e+02       8.22945e+00      -8.65679e+00       1.03269e-04       6.27591e+01
 19.200      2.11785e+02       7.95516e+00      -8.46944e+00       1.01557e-04       6.17291e+01
 19.300      2.11826e+02       7.68318e+00      -8.28840e+00       9.98676e-05       6.07136e+01
 19.400      2.11872e+02       7.41450e+00      -8.11349e+00       9.82004e-05       5.97129e+01
 19.500      2.11923e+02       7.15013e+00      -7.94456e+00       9.65567e-05       5.87276e+01
 19.600      2.11978e+02       6.89107e+00      -7.78146e+00       9.49373e-05       5.77577e+01
 19.700      2.12038e+02       6.63832e+00      -7.62404e+00       9.33431e-05       5.68038e+01
 19.800      2.12101e+02       6.39287e+00      -7.47212e+00       9.17748e-05       5.58660e+01
 19.900      2.12167e+02       6.15573e+00      -7.32556e+00       9.02328e-05       5.49446e+01
 20.000      2.12237e+02       5.92788e+00      -7.18419e+00       8.87178e-05       5.40397e+01
 20.100      2.12308e+02       5.71033e+00      -7.04787e+00       8.72304e-05       5.31515e+01
 20.200      2.12381e+02       5.50409e+00      -6.91643e+00       8.57709e-05       5.22803e+01
 20.300      2.12456e+02       5.31015e+00      -6.78971e+00       8.43398e-05       5.14261e+01
