# Data Source: NASA MERRA (version 2)
# Model Time = 2011-10-13 18:00:00
# Location = [  39.1026,  -84.5123 ]
# Fields = [ Z(km), T(K), U(m/s), V(m/s), R(g/cm3), P(mbar) ]
# Ground Height = 0.165
  0.000      2.91530e+02      -2.19029e+00       3.34737e+00       1.19622e-03       1.00087e+03
  0.100      2.90935e+02      -2.15939e+00       3.18467e+00       1.18469e-03       9.89192e+02
  0.200      2.90267e+02      -2.16686e+00       3.22168e+00       1.17356e-03       9.77653e+02
  0.300      2.89466e+02      -2.24204e+00       3.63032e+00       1.16309e-03       9.66255e+02
  0.400      2.88590e+02      -2.31521e+00       4.22395e+00       1.15300e-03       9.54979e+02
  0.500      2.87756e+02      -2.27396e+00       4.65443e+00       1.14281e-03       9.43800e+02
  0.600      2.86999e+02      -2.10986e+00       4.82477e+00       1.13236e-03       9.32712e+02
  0.700      2.86285e+02      -1.90437e+00       4.85591e+00       1.12181e-03       9.21725e+02
  0.800      2.85598e+02      -1.71080e+00       4.85003e+00       1.11124e-03       9.10845e+02
  0.900      2.84958e+02      -1.52964e+00       4.86520e+00       1.10056e-03       9.00071e+02
  1.000      2.84382e+02      -1.35769e+00       4.94289e+00       1.08972e-03       8.89402e+02
  1.100      2.83860e+02      -1.19749e+00       5.07434e+00       1.07875e-03       8.78836e+02
  1.200      2.83376e+02      -1.05310e+00       5.23800e+00       1.06773e-03       8.68376e+02
  1.300      2.82914e+02      -9.28539e-01       5.41230e+00       1.05672e-03       8.58020e+02
  1.400      2.82457e+02      -8.27823e-01       5.57572e+00       1.04579e-03       8.47770e+02
  1.500      2.81993e+02      -7.50271e-01       5.71504e+00       1.03498e-03       8.37626e+02
  1.600      2.81516e+02      -6.85267e-01       5.83461e+00       1.02430e-03       8.27585e+02
  1.700      2.81022e+02      -6.20928e-01       5.94100e+00       1.01378e-03       8.17647e+02
  1.800      2.80509e+02      -5.45371e-01       6.04081e+00       1.00342e-03       8.07811e+02
  1.900      2.79971e+02      -4.46748e-01       6.14060e+00       9.93230e-04       7.98076e+02
  2.000      2.79408e+02      -3.20392e-01       6.24615e+00       9.83212e-04       7.88440e+02
  2.100      2.78831e+02      -1.77732e-01       6.36136e+00       9.73329e-04       7.78901e+02
  2.200      2.78248e+02      -3.23875e-02       6.48989e+00       9.63543e-04       7.69459e+02
  2.300      2.77670e+02       1.02024e-01       6.63541e+00       9.53818e-04       7.60111e+02
  2.400      2.77108e+02       2.11884e-01       6.80158e+00       9.44119e-04       7.50857e+02
  2.500      2.76568e+02       2.86225e-01       6.99124e+00       9.34420e-04       7.41695e+02
  2.600      2.76046e+02       3.28124e-01       7.20292e+00       9.24737e-04       7.32625e+02
  2.700      2.75535e+02       3.45289e-01       7.43372e+00       9.15099e-04       7.23647e+02
  2.800      2.75026e+02       3.45430e-01       7.68073e+00       9.05536e-04       7.14761e+02
  2.900      2.74511e+02       3.36258e-01       7.94106e+00       8.96074e-04       7.05968e+02
  3.000      2.73981e+02       3.25446e-01       8.21181e+00       8.86741e-04       6.97267e+02
  3.100      2.73433e+02       3.18158e-01       8.49142e+00       8.77548e-04       6.88657e+02
  3.200      2.72868e+02       3.15476e-01       8.78044e+00       8.68486e-04       6.80138e+02
  3.300      2.72288e+02       3.18105e-01       9.07961e+00       8.59544e-04       6.71706e+02
  3.400      2.71697e+02       3.26751e-01       9.38969e+00       8.50711e-04       6.63359e+02
  3.500      2.71096e+02       3.42119e-01       9.71142e+00       8.41977e-04       6.55098e+02
  3.600      2.70489e+02       3.64944e-01       1.00455e+01       8.33332e-04       6.46918e+02
  3.700      2.69878e+02       3.97229e-01       1.03883e+01       8.24765e-04       6.38821e+02
  3.800      2.69266e+02       4.42730e-01       1.07304e+01       8.16266e-04       6.30805e+02
  3.900      2.68658e+02       5.05325e-01       1.10622e+01       8.07825e-04       6.22871e+02
  4.000      2.68056e+02       5.88896e-01       1.13739e+01       7.99432e-04       6.15020e+02
  4.100      2.67465e+02       6.97322e-01       1.16555e+01       7.91078e-04       6.07251e+02
  4.200      2.66888e+02       8.34485e-01       1.18975e+01       7.82754e-04       5.99565e+02
  4.300      2.66327e+02       1.00200e+00       1.20922e+01       7.74453e-04       5.91961e+02
  4.400      2.65781e+02       1.19380e+00       1.22401e+01       7.66184e-04       5.84439e+02
  4.500      2.65245e+02       1.40224e+00       1.23432e+01       7.57957e-04       5.76997e+02
  4.600      2.64717e+02       1.61964e+00       1.24036e+01       7.49779e-04       5.69636e+02
  4.700      2.64194e+02       1.83834e+00       1.24233e+01       7.41660e-04       5.62355e+02
  4.800      2.63672e+02       2.05068e+00       1.24043e+01       7.33609e-04       5.55151e+02
  4.900      2.63149e+02       2.24902e+00       1.23487e+01       7.25634e-04       5.48025e+02
  5.000      2.62621e+02       2.42869e+00       1.22591e+01       7.17741e-04       5.40977e+02
  5.100      2.62085e+02       2.59037e+00       1.21395e+01       7.09938e-04       5.34004e+02
  5.200      2.61540e+02       2.73527e+00       1.19937e+01       7.02228e-04       5.27107e+02
  5.300      2.60984e+02       2.86463e+00       1.18259e+01       6.94618e-04       5.20285e+02
  5.400      2.60413e+02       2.97965e+00       1.16401e+01       6.87111e-04       5.13537e+02
  5.500      2.59826e+02       3.08157e+00       1.14401e+01       6.79714e-04       5.06863e+02
  5.600      2.59220e+02       3.17161e+00       1.12300e+01       6.72430e-04       5.00262e+02
  5.700      2.58594e+02       3.24975e+00       1.10151e+01       6.65261e-04       4.93733e+02
  5.800      2.57949e+02       3.31032e+00       1.08069e+01       6.58200e-04       4.87275e+02
  5.900      2.57288e+02       3.34609e+00       1.06182e+01       6.51236e-04       4.80885e+02
  6.000      2.56615e+02       3.34982e+00       1.04621e+01       6.44360e-04       4.74561e+02
  6.100      2.55930e+02       3.31426e+00       1.03516e+01       6.37562e-04       4.68302e+02
  6.200      2.55238e+02       3.23217e+00       1.02998e+01       6.30833e-04       4.62106e+02
  6.300      2.54541e+02       3.09631e+00       1.03197e+01       6.24163e-04       4.55972e+02
  6.400      2.53842e+02       2.89945e+00       1.04242e+01       6.17544e-04       4.49897e+02
  6.500      2.53142e+02       2.63739e+00       1.06220e+01       6.10972e-04       4.43881e+02
  6.600      2.52437e+02       2.31765e+00       1.09044e+01       6.04458e-04       4.37926e+02
  6.700      2.51723e+02       1.95049e+00       1.12587e+01       5.98015e-04       4.32033e+02
  6.800      2.50996e+02       1.54616e+00       1.16721e+01       5.91657e-04       4.26206e+02
  6.900      2.50250e+02       1.11494e+00       1.21320e+01       5.85399e-04       4.20444e+02
  7.000      2.49482e+02       6.67092e-01       1.26256e+01       5.79252e-04       4.14752e+02
  7.100      2.48685e+02       2.12881e-01       1.31403e+01       5.73229e-04       4.09129e+02
  7.200      2.47857e+02      -2.37429e-01       1.36633e+01       5.67342e-04       4.03578e+02
  7.300      2.46991e+02      -6.73550e-01       1.41821e+01       5.61601e-04       3.98099e+02
  7.400      2.46092e+02      -1.08394e+00       1.46883e+01       5.55996e-04       3.92691e+02
  7.500      2.45175e+02      -1.45523e+00       1.51801e+01       5.50478e-04       3.87345e+02
  7.600      2.44255e+02      -1.77386e+00       1.56564e+01       5.44999e-04       3.82051e+02
  7.700      2.43349e+02      -2.02630e+00       1.61157e+01       5.39514e-04       3.76803e+02
  7.800      2.42473e+02      -2.19901e+00       1.65569e+01       5.33975e-04       3.71592e+02
  7.900      2.41643e+02      -2.27845e+00       1.69787e+01       5.28339e-04       3.66411e+02
  8.000      2.40875e+02      -2.25108e+00       1.73797e+01       5.22563e-04       3.61254e+02
  8.100      2.40185e+02      -2.10336e+00       1.77588e+01       5.16607e-04       3.56113e+02
  8.200      2.39589e+02      -1.82175e+00       1.81147e+01       5.10432e-04       3.50984e+02
  8.300      2.39101e+02      -1.39571e+00       1.84460e+01       5.04012e-04       3.45862e+02
  8.400      2.38713e+02      -8.36293e-01       1.87514e+01       4.97393e-04       3.40767e+02
  8.500      2.38412e+02      -1.63985e-01       1.90295e+01       4.90650e-04       3.35723e+02
  8.600      2.38181e+02       6.00663e-01       1.92787e+01       4.83858e-04       3.30755e+02
  8.700      2.38006e+02       1.43710e+00       1.94977e+01       4.77084e-04       3.25885e+02
  8.800      2.37871e+02       2.32480e+00       1.96850e+01       4.70396e-04       3.21135e+02
  8.900      2.37761e+02       3.24320e+00       1.98391e+01       4.63856e-04       3.16523e+02
  9.000      2.37661e+02       4.17178e+00       1.99585e+01       4.57522e-04       3.12070e+02
  9.100      2.37557e+02       5.08998e+00       2.00419e+01       4.51450e-04       3.07793e+02
  9.200      2.37431e+02       5.97725e+00       2.00878e+01       4.45694e-04       3.03709e+02
  9.300      2.37271e+02       6.81308e+00       2.00947e+01       4.40303e-04       2.99832e+02
  9.400      2.37063e+02       7.58118e+00       2.00620e+01       4.35309e-04       2.96171e+02
  9.500      2.36809e+02       8.28038e+00       1.99920e+01       4.30680e-04       2.92709e+02
  9.600      2.36514e+02       8.91275e+00       1.98875e+01       4.26375e-04       2.89421e+02
  9.700      2.36180e+02       9.48038e+00       1.97516e+01       4.22354e-04       2.86287e+02
  9.800      2.35812e+02       9.98534e+00       1.95870e+01       4.18580e-04       2.83287e+02
  9.900      2.35414e+02       1.04297e+01       1.93967e+01       4.15015e-04       2.80400e+02
 10.000      2.34990e+02       1.08156e+01       1.91835e+01       4.11625e-04       2.77609e+02
 10.100      2.34544e+02       1.11451e+01       1.89505e+01       4.08376e-04       2.74894e+02
 10.200      2.34079e+02       1.14203e+01       1.87004e+01       4.05235e-04       2.72239e+02
 10.300      2.33600e+02       1.16432e+01       1.84362e+01       4.02170e-04       2.69627e+02
 10.400      2.33110e+02       1.18159e+01       1.81607e+01       3.99151e-04       2.67042e+02
 10.500      2.32613e+02       1.19406e+01       1.78770e+01       3.96147e-04       2.64468e+02
 10.600      2.32114e+02       1.20193e+01       1.75878e+01       3.93129e-04       2.61890e+02
 10.700      2.31617e+02       1.20541e+01       1.72961e+01       3.90069e-04       2.59295e+02
 10.800      2.31124e+02       1.20471e+01       1.70048e+01       3.86940e-04       2.56667e+02
 10.900      2.30640e+02       1.20003e+01       1.67168e+01       3.83715e-04       2.53996e+02
 11.000      2.30170e+02       1.19159e+01       1.64350e+01       3.80368e-04       2.51267e+02
 11.100      2.29717e+02       1.17961e+01       1.61622e+01       3.76875e-04       2.48469e+02
 11.200      2.29280e+02       1.16446e+01       1.58997e+01       3.73231e-04       2.45599e+02
 11.300      2.28860e+02       1.14672e+01       1.56475e+01       3.69441e-04       2.42659e+02
 11.400      2.28452e+02       1.12694e+01       1.54055e+01       3.65515e-04       2.39652e+02
 11.500      2.28054e+02       1.10568e+01       1.51738e+01       3.61461e-04       2.36582e+02
 11.600      2.27665e+02       1.08349e+01       1.49522e+01       3.57286e-04       2.33451e+02
 11.700      2.27282e+02       1.06094e+01       1.47407e+01       3.53000e-04       2.30262e+02
 11.800      2.26903e+02       1.03858e+01       1.45392e+01       3.48610e-04       2.27019e+02
 11.900      2.26525e+02       1.01697e+01       1.43477e+01       3.44124e-04       2.23724e+02
 12.000      2.26146e+02       9.96667e+00       1.41661e+01       3.39551e-04       2.20382e+02
 12.100      2.25764e+02       9.78236e+00       1.39943e+01       3.34898e-04       2.16995e+02
 12.200      2.25377e+02       9.62233e+00       1.38323e+01       3.30173e-04       2.13566e+02
 12.300      2.24981e+02       9.49215e+00       1.36801e+01       3.25385e-04       2.10100e+02
 12.400      2.24576e+02       9.39741e+00       1.35375e+01       3.20540e-04       2.06599e+02
 12.500      2.24158e+02       9.34369e+00       1.34046e+01       3.15647e-04       2.03066e+02
 12.600      2.23725e+02       9.33658e+00       1.32811e+01       3.10712e-04       1.99505e+02
 12.700      2.23276e+02       9.37878e+00       1.31668e+01       3.05745e-04       1.95922e+02
 12.800      2.22813e+02       9.46536e+00       1.30598e+01       3.00760e-04       1.92328e+02
 12.900      2.22338e+02       9.59014e+00       1.29584e+01       2.95773e-04       1.88736e+02
 13.000      2.21853e+02       9.74694e+00       1.28607e+01       2.90798e-04       1.85156e+02
 13.100      2.21360e+02       9.92957e+00       1.27648e+01       2.85847e-04       1.81599e+02
 13.200      2.20862e+02       1.01318e+01       1.26690e+01       2.80933e-04       1.78076e+02
 13.300      2.20360e+02       1.03476e+01       1.25712e+01       2.76068e-04       1.74594e+02
 13.400      2.19857e+02       1.05706e+01       1.24698e+01       2.71262e-04       1.71163e+02
 13.500      2.19354e+02       1.07947e+01       1.23628e+01       2.66525e-04       1.67790e+02
 13.600      2.18855e+02       1.10138e+01       1.22484e+01       2.61868e-04       1.64483e+02
 13.700      2.18361e+02       1.12215e+01       1.21248e+01       2.57297e-04       1.61247e+02
 13.800      2.17875e+02       1.14118e+01       1.19900e+01       2.52822e-04       1.58090e+02
 13.900      2.17398e+02       1.15785e+01       1.18423e+01       2.48449e-04       1.55015e+02
 14.000      2.16932e+02       1.17154e+01       1.16798e+01       2.44184e-04       1.52028e+02
 14.100      2.16481e+02       1.18163e+01       1.15006e+01       2.40035e-04       1.49134e+02
 14.200      2.16045e+02       1.18779e+01       1.13040e+01       2.36001e-04       1.46332e+02
 14.300      2.15624e+02       1.19019e+01       1.10911e+01       2.32079e-04       1.43620e+02
 14.400      2.15217e+02       1.18902e+01       1.08631e+01       2.28263e-04       1.40992e+02
 14.500      2.14826e+02       1.18449e+01       1.06212e+01       2.24548e-04       1.38445e+02
 14.600      2.14448e+02       1.17680e+01       1.03666e+01       2.20928e-04       1.35974e+02
 14.700      2.14084e+02       1.16615e+01       1.01006e+01       2.17400e-04       1.33575e+02
 14.800      2.13734e+02       1.15275e+01       9.82439e+00       2.13959e-04       1.31246e+02
 14.900      2.13397e+02       1.13679e+01       9.53922e+00       2.10600e-04       1.28982e+02
 15.000      2.13073e+02       1.11848e+01       9.24630e+00       2.07320e-04       1.26780e+02
 15.100      2.12762e+02       1.09802e+01       8.94688e+00       2.04114e-04       1.24638e+02
 15.200      2.12464e+02       1.07561e+01       8.64218e+00       2.00979e-04       1.22551e+02
 15.300      2.12177e+02       1.05146e+01       8.33343e+00       1.97912e-04       1.20518e+02
 15.400      2.11903e+02       1.02576e+01       8.02186e+00       1.94909e-04       1.18536e+02
 15.500      2.11640e+02       9.98729e+00       7.70869e+00       1.91966e-04       1.16602e+02
 15.600      2.11388e+02       9.70557e+00       7.39516e+00       1.89082e-04       1.14713e+02
 15.700      2.11148e+02       9.41450e+00       7.08250e+00       1.86252e-04       1.12868e+02
 15.800      2.10918e+02       9.11610e+00       6.77193e+00       1.83474e-04       1.11063e+02
 15.900      2.10698e+02       8.81240e+00       6.46470e+00       1.80746e-04       1.09298e+02
 16.000      2.10489e+02       8.50541e+00       6.16201e+00       1.78065e-04       1.07570e+02
 16.100      2.10290e+02       8.19716e+00       5.86511e+00       1.75428e-04       1.05876e+02
 16.200      2.10100e+02       7.88967e+00       5.57523e+00       1.72833e-04       1.04216e+02
 16.300      2.09920e+02       7.58498e+00       5.29360e+00       1.70278e-04       1.02587e+02
 16.400      2.09748e+02       7.28509e+00       5.02143e+00       1.67761e-04       1.00988e+02
 16.500      2.09586e+02       6.99201e+00       4.75995e+00       1.65279e-04       9.94172e+01
 16.600      2.09432e+02       6.70686e+00       4.50984e+00       1.62832e-04       9.78731e+01
 16.700      2.09286e+02       6.42951e+00       4.27097e+00       1.60417e-04       9.63548e+01
 16.800      2.09150e+02       6.15977e+00       4.04319e+00       1.58034e-04       9.48615e+01
 16.900      2.09023e+02       5.89739e+00       3.82634e+00       1.55681e-04       9.33924e+01
 17.000      2.08905e+02       5.64217e+00       3.62025e+00       1.53357e-04       9.19464e+01
 17.100      2.08797e+02       5.39390e+00       3.42476e+00       1.51061e-04       9.05230e+01
 17.200      2.08699e+02       5.15236e+00       3.23970e+00       1.48792e-04       8.91213e+01
 17.300      2.08610e+02       4.91733e+00       3.06492e+00       1.46549e-04       8.77406e+01
 17.400      2.08532e+02       4.68860e+00       2.90025e+00       1.44331e-04       8.63801e+01
 17.500      2.08464e+02       4.46596e+00       2.74553e+00       1.42137e-04       8.50392e+01
 17.600      2.08406e+02       4.24918e+00       2.60059e+00       1.39966e-04       8.37173e+01
 17.700      2.08359e+02       4.03806e+00       2.46528e+00       1.37818e-04       8.24137e+01
 17.800      2.08322e+02       3.83238e+00       2.33942e+00       1.35691e-04       8.11278e+01
 17.900      2.08297e+02       3.63192e+00       2.22286e+00       1.33586e-04       7.98592e+01
 18.000      2.08283e+02       3.43647e+00       2.11544e+00       1.31500e-04       7.86071e+01
 18.100      2.08280e+02       3.24581e+00       2.01699e+00       1.29434e-04       7.73712e+01
 18.200      2.08289e+02       3.05973e+00       1.92734e+00       1.27387e-04       7.61509e+01
 18.300      2.08310e+02       2.87801e+00       1.84635e+00       1.25359e-04       7.49458e+01
 18.400      2.08342e+02       2.70044e+00       1.77383e+00       1.23348e-04       7.37553e+01
 18.500      2.08387e+02       2.52680e+00       1.70963e+00       1.21355e-04       7.25791e+01
 18.600      2.08444e+02       2.35688e+00       1.65360e+00       1.19379e-04       7.14167e+01
 18.700      2.08513e+02       2.19046e+00       1.60555e+00       1.17420e-04       7.02678e+01
 18.800      2.08596e+02       2.02737e+00       1.56530e+00       1.15476e-04       6.91321e+01
 18.900      2.08690e+02       1.86778e+00       1.53226e+00       1.13550e-04       6.80097e+01
 19.000      2.08795e+02       1.71204e+00       1.50568e+00       1.11643e-04       6.69012e+01
 19.100      2.08912e+02       1.56049e+00       1.48482e+00       1.09756e-04       6.58068e+01
 19.200      2.09038e+02       1.41349e+00       1.46892e+00       1.07890e-04       6.47271e+01
 19.300      2.09173e+02       1.27137e+00       1.45723e+00       1.06046e-04       6.36623e+01
 19.400      2.09318e+02       1.13449e+00       1.44899e+00       1.04226e-04       6.26128e+01
 19.500      2.09470e+02       1.00319e+00       1.44345e+00       1.02430e-04       6.15788e+01
 19.600      2.09629e+02       8.77812e-01       1.43987e+00       1.00660e-04       6.05606e+01
 19.700      2.09794e+02       7.58713e-01       1.43749e+00       9.89162e-05       5.95584e+01
 19.800      2.09965e+02       6.46236e-01       1.43555e+00       9.71994e-05       5.85724e+01
 19.900      2.10141e+02       5.40725e-01       1.43331e+00       9.55103e-05       5.76028e+01
 20.000      2.10322e+02       4.42528e-01       1.43001e+00       9.38494e-05       5.66497e+01
 20.100      2.10506e+02       3.51993e-01       1.42490e+00       9.22175e-05       5.57133e+01
 20.200      2.10692e+02       2.69465e-01       1.41722e+00       9.06149e-05       5.47936e+01
 20.300      2.10881e+02       1.95293e-01       1.40623e+00       8.90422e-05       5.38909e+01
