# Data Source: NASA GEOS5 Near-Real-Time
# Model Time = 2010-04-08 18:00:00
# Location = [  39.7393, -104.9900 ]
# Fields = [ Z(km), T(K), U(m/s), V(m/s), R(g/cm3), P(mbar) ]
# Ground Height = 1.589
  0.000      2.94297e+02       2.09675e-01       1.97060e+00       1.19875e-03       1.01250e+03
  0.100      2.93676e+02       1.80545e-01       2.02349e+00       1.18721e-03       1.00064e+03
  0.200      2.93056e+02       1.50959e-01       2.07775e+00       1.17578e-03       9.88915e+02
  0.300      2.92417e+02       1.29363e-01       2.10798e+00       1.16454e-03       9.77326e+02
  0.400      2.91744e+02       1.23520e-01       2.09327e+00       1.15354e-03       9.65866e+02
  0.500      2.91055e+02       1.36096e-01       2.04591e+00       1.14269e-03       9.54523e+02
  0.600      2.90383e+02       1.66863e-01       1.99180e+00       1.13185e-03       9.43285e+02
  0.700      2.89728e+02       2.06585e-01       1.93627e+00       1.12102e-03       9.32154e+02
  0.800      2.89063e+02       2.39268e-01       1.86889e+00       1.11033e-03       9.21139e+02
  0.900      2.88381e+02       2.58736e-01       1.79220e+00       1.09979e-03       9.10244e+02
  1.000      2.87709e+02       2.73565e-01       1.72845e+00       1.08930e-03       8.99464e+02
  1.100      2.87069e+02       2.88172e-01       1.69362e+00       1.07878e-03       8.88796e+02
  1.200      2.86458e+02       2.88550e-01       1.67667e+00       1.06824e-03       8.78238e+02
  1.300      2.85870e+02       2.58309e-01       1.66321e+00       1.05771e-03       8.67794e+02
  1.400      2.85269e+02       1.97884e-01       1.66530e+00       1.04732e-03       8.57461e+02
  1.500      2.84606e+02       1.17897e-01       1.71082e+00       1.03723e-03       8.47234e+02
  1.600      2.83854e+02       3.09470e-02       1.81156e+00       1.02756e-03       8.37109e+02
  1.700      2.83025e+02      -4.70098e-02       1.94954e+00       1.01822e-03       8.27083e+02
  1.800      2.82139e+02      -1.00569e-01       2.10258e+00       1.00915e-03       8.17152e+02
  1.900      2.81222e+02      -1.21264e-01       2.24089e+00       1.00026e-03       8.07316e+02
  2.000      2.80303e+02      -1.03856e-01       2.33133e+00       9.91430e-04       7.97575e+02
  2.100      2.79402e+02      -4.73224e-02       2.35489e+00       9.82593e-04       7.87927e+02
  2.200      2.78526e+02       4.11864e-02       2.32011e+00       9.73722e-04       7.78365e+02
  2.300      2.77677e+02       1.53909e-01       2.23834e+00       9.64800e-04       7.68883e+02
  2.400      2.76853e+02       2.87173e-01       2.11713e+00       9.55841e-04       7.59482e+02
  2.500      2.76049e+02       4.40092e-01       1.96138e+00       9.46876e-04       7.50172e+02
  2.600      2.75257e+02       6.17779e-01       1.76751e+00       9.37937e-04       7.40958e+02
  2.700      2.74466e+02       8.50483e-01       1.49621e+00       9.29058e-04       7.31835e+02
  2.800      2.73665e+02       1.17495e+00       1.09903e+00       9.20271e-04       7.22796e+02
  2.900      2.72854e+02       1.60885e+00       5.62755e-01       9.11566e-04       7.13840e+02
  3.000      2.72064e+02       2.13229e+00      -5.63612e-02       9.02852e-04       7.04968e+02
  3.100      2.71325e+02       2.72046e+00      -6.94752e-01       8.94030e-04       6.96184e+02
  3.200      2.70667e+02       3.33270e+00      -1.31434e+00       8.85015e-04       6.87491e+02
  3.300      2.70112e+02       3.90958e+00      -1.90722e+00       8.75733e-04       6.78886e+02
  3.400      2.69682e+02       4.39241e+00      -2.46747e+00       8.66124e-04       6.70368e+02
  3.500      2.69358e+02       4.75698e+00      -2.99409e+00       8.56264e-04       6.61941e+02
  3.600      2.69084e+02       5.00972e+00      -3.49044e+00       8.46345e-04       6.53608e+02
  3.700      2.68805e+02       5.15938e+00      -3.95935e+00       8.36551e-04       6.45375e+02
  3.800      2.68486e+02       5.23650e+00      -4.39130e+00       8.26988e-04       6.37241e+02
  3.900      2.68110e+02       5.29005e+00      -4.76636e+00       8.17701e-04       6.29200e+02
  4.000      2.67658e+02       5.36875e+00      -5.06486e+00       8.08727e-04       6.21248e+02
  4.100      2.67134e+02       5.49870e+00      -5.28302e+00       8.00052e-04       6.13380e+02
  4.200      2.66556e+02       5.68178e+00      -5.43406e+00       7.91610e-04       6.05595e+02
  4.300      2.65945e+02       5.91865e+00      -5.53203e+00       7.83334e-04       5.97890e+02
  4.400      2.65315e+02       6.20996e+00      -5.58723e+00       7.75178e-04       5.90264e+02
  4.500      2.64671e+02       6.55630e+00      -5.60327e+00       7.67130e-04       5.82717e+02
  4.600      2.64015e+02       6.95825e+00      -5.58301e+00       7.59180e-04       5.75249e+02
  4.700      2.63350e+02       7.41232e+00      -5.52801e+00       7.51324e-04       5.67861e+02
  4.800      2.62672e+02       7.89702e+00      -5.43385e+00       7.43565e-04       5.60550e+02
  4.900      2.61979e+02       8.38589e+00      -5.29451e+00       7.35910e-04       5.53315e+02
  5.000      2.61267e+02       8.85316e+00      -5.10452e+00       7.28365e-04       5.46154e+02
  5.100      2.60539e+02       9.28688e+00      -4.86980e+00       7.20918e-04       5.39065e+02
  5.200      2.59806e+02       9.68753e+00      -4.60653e+00       7.13542e-04       5.32049e+02
  5.300      2.59077e+02       1.00561e+01      -4.33125e+00       7.06212e-04       5.25104e+02
  5.400      2.58359e+02       1.03929e+01      -4.05855e+00       6.98907e-04       5.18232e+02
  5.500      2.57651e+02       1.06965e+01      -3.79463e+00       6.91630e-04       5.11432e+02
  5.600      2.56950e+02       1.09646e+01      -3.54355e+00       6.84392e-04       5.04703e+02
  5.700      2.56253e+02       1.11950e+01      -3.30933e+00       6.77203e-04       4.98046e+02
  5.800      2.55554e+02       1.13854e+01      -3.09477e+00       6.70072e-04       4.91459e+02
  5.900      2.54849e+02       1.15336e+01      -2.90059e+00       6.63016e-04       4.84941e+02
  6.000      2.54130e+02       1.16372e+01      -2.72729e+00       6.56049e-04       4.78491e+02
  6.100      2.53390e+02       1.16940e+01      -2.57542e+00       6.49185e-04       4.72107e+02
  6.200      2.52629e+02       1.17137e+01      -2.44724e+00       6.42425e-04       4.65788e+02
  6.300      2.51851e+02       1.17184e+01      -2.34693e+00       6.35760e-04       4.59535e+02
  6.400      2.51059e+02       1.17311e+01      -2.27874e+00       6.29177e-04       4.53347e+02
  6.500      2.50258e+02       1.17742e+01      -2.24671e+00       6.22667e-04       4.47224e+02
  6.600      2.49450e+02       1.18566e+01      -2.24781e+00       6.16223e-04       4.41167e+02
  6.700      2.48636e+02       1.19712e+01      -2.27111e+00       6.09839e-04       4.35173e+02
  6.800      2.47818e+02       1.21106e+01      -2.30524e+00       6.03514e-04       4.29242e+02
  6.900      2.46995e+02       1.22669e+01      -2.33887e+00       5.97245e-04       4.23373e+02
  7.000      2.46170e+02       1.24361e+01      -2.36512e+00       5.91027e-04       4.17565e+02
  7.100      2.45343e+02       1.26200e+01      -2.38502e+00       5.84856e-04       4.11818e+02
  7.200      2.44517e+02       1.28210e+01      -2.40047e+00       5.78728e-04       4.06131e+02
  7.300      2.43693e+02       1.30417e+01      -2.41335e+00       5.72640e-04       4.00503e+02
  7.400      2.42873e+02       1.32828e+01      -2.42485e+00       5.66586e-04       3.94936e+02
  7.500      2.42059e+02       1.35360e+01      -2.43262e+00       5.60560e-04       3.89427e+02
  7.600      2.41255e+02       1.37898e+01      -2.43311e+00       5.54558e-04       3.83977e+02
  7.700      2.40462e+02       1.40329e+01      -2.42281e+00       5.48573e-04       3.78585e+02
  7.800      2.39685e+02       1.42540e+01      -2.39829e+00       5.42599e-04       3.73251e+02
  7.900      2.38922e+02       1.44491e+01      -2.36325e+00       5.36636e-04       3.67975e+02
  8.000      2.38173e+02       1.46250e+01      -2.33259e+00       5.30691e-04       3.62757e+02
  8.100      2.37433e+02       1.47900e+01      -2.32215e+00       5.24772e-04       3.57597e+02
  8.200      2.36700e+02       1.49518e+01      -2.34778e+00       5.18887e-04       3.52494e+02
  8.300      2.35971e+02       1.51184e+01      -2.42467e+00       5.13042e-04       3.47450e+02
  8.400      2.35244e+02       1.52896e+01      -2.55277e+00       5.07239e-04       3.42463e+02
  8.500      2.34523e+02       1.54581e+01      -2.71711e+00       5.01476e-04       3.37534e+02
  8.600      2.33808e+02       1.56162e+01      -2.90211e+00       4.95747e-04       3.32661e+02
  8.700      2.33102e+02       1.57562e+01      -3.09215e+00       4.90051e-04       3.27845e+02
  8.800      2.32405e+02       1.58703e+01      -3.27188e+00       4.84384e-04       3.23085e+02
  8.900      2.31718e+02       1.59536e+01      -3.43439e+00       4.78747e-04       3.18381e+02
  9.000      2.31037e+02       1.60042e+01      -3.58373e+00       4.73145e-04       3.13731e+02
  9.100      2.30360e+02       1.60204e+01      -3.72466e+00       4.67585e-04       3.09137e+02
  9.200      2.29685e+02       1.60007e+01      -3.86193e+00       4.62073e-04       3.04596e+02
  9.300      2.29006e+02       1.59435e+01      -4.00030e+00       4.56613e-04       3.00108e+02
  9.400      2.28323e+02       1.58515e+01      -4.14160e+00       4.51212e-04       2.95674e+02
  9.500      2.27631e+02       1.57463e+01      -4.27513e+00       4.45875e-04       2.91291e+02
  9.600      2.26928e+02       1.56548e+01      -4.38678e+00       4.40608e-04       2.86960e+02
  9.700      2.26208e+02       1.56037e+01      -4.46247e+00       4.35417e-04       2.82680e+02
  9.800      2.25470e+02       1.56197e+01      -4.48811e+00       4.30305e-04       2.78450e+02
  9.900      2.24710e+02       1.57296e+01      -4.44965e+00       4.25280e-04       2.74270e+02
 10.000      2.23925e+02       1.59436e+01      -4.34720e+00       4.20341e-04       2.70139e+02
 10.100      2.23120e+02       1.62327e+01      -4.21473e+00       4.15481e-04       2.66055e+02
 10.200      2.22298e+02       1.65623e+01      -4.09113e+00       4.10691e-04       2.62019e+02
 10.300      2.21464e+02       1.68977e+01      -4.01530e+00       4.05961e-04       2.58030e+02
 10.400      2.20621e+02       1.72043e+01      -4.02616e+00       4.01283e-04       2.54086e+02
 10.500      2.19774e+02       1.74473e+01      -4.16262e+00       3.96649e-04       2.50187e+02
 10.600      2.18930e+02       1.75983e+01      -4.45190e+00       3.92045e-04       2.46333e+02
 10.700      2.18114e+02       1.76576e+01      -4.86729e+00       3.87429e-04       2.42525e+02
 10.800      2.17355e+02       1.76338e+01      -5.36647e+00       3.82751e-04       2.38764e+02
 10.900      2.16684e+02       1.75354e+01      -5.90713e+00       3.77966e-04       2.35051e+02
 11.000      2.16130e+02       1.73711e+01      -6.44695e+00       3.73029e-04       2.31387e+02
 11.100      2.15723e+02       1.71496e+01      -6.94361e+00       3.67897e-04       2.27774e+02
 11.200      2.15491e+02       1.68793e+01      -7.35493e+00       3.62531e-04       2.24211e+02
 11.300      2.15450e+02       1.65736e+01      -7.65808e+00       3.56924e-04       2.20701e+02
 11.400      2.15577e+02       1.62556e+01      -7.87083e+00       3.51127e-04       2.17244e+02
 11.500      2.15849e+02       1.59493e+01      -8.01606e+00       3.45194e-04       2.13844e+02
 11.600      2.16241e+02       1.56790e+01      -8.11663e+00       3.39181e-04       2.10500e+02
 11.700      2.16728e+02       1.54690e+01      -8.19542e+00       3.33138e-04       2.07215e+02
 11.800      2.17286e+02       1.53435e+01      -8.27530e+00       3.27111e-04       2.03990e+02
 11.900      2.17889e+02       1.53266e+01      -8.37914e+00       3.21146e-04       2.00825e+02
 12.000      2.18513e+02       1.54396e+01      -8.52748e+00       3.15281e-04       1.97722e+02
 12.100      2.19133e+02       1.56768e+01      -8.71962e+00       3.09549e-04       1.94679e+02
 12.200      2.19727e+02       1.60180e+01      -8.94351e+00       3.03976e-04       1.91692e+02
 12.300      2.20269e+02       1.64429e+01      -9.18699e+00       2.98587e-04       1.88758e+02
 12.400      2.20736e+02       1.69310e+01      -9.43786e+00       2.93404e-04       1.85875e+02
 12.500      2.21104e+02       1.74621e+01      -9.68399e+00       2.88446e-04       1.83038e+02
 12.600      2.21348e+02       1.80157e+01      -9.91318e+00       2.83733e-04       1.80247e+02
 12.700      2.21446e+02       1.85716e+01      -1.01133e+01       2.79281e-04       1.77497e+02
 12.800      2.21372e+02       1.91095e+01      -1.02721e+01       2.75108e-04       1.74787e+02
 12.900      2.21114e+02       1.96112e+01      -1.03816e+01       2.71217e-04       1.72114e+02
 13.000      2.20693e+02       2.00665e+01      -1.04462e+01       2.67573e-04       1.69478e+02
 13.100      2.20136e+02       2.04660e+01      -1.04730e+01       2.64134e-04       1.66877e+02
 13.200      2.19471e+02       2.08010e+01      -1.04690e+01       2.60862e-04       1.64312e+02
 13.300      2.18726e+02       2.10622e+01      -1.04414e+01       2.57718e-04       1.61781e+02
 13.400      2.17929e+02       2.12408e+01      -1.03973e+01       2.54668e-04       1.59284e+02
 13.500      2.17106e+02       2.13276e+01      -1.03435e+01       2.51678e-04       1.56819e+02
 13.600      2.16287e+02       2.13135e+01      -1.02873e+01       2.48714e-04       1.54388e+02
 13.700      2.15499e+02       2.11897e+01      -1.02357e+01       2.45743e-04       1.51988e+02
 13.800      2.14770e+02       2.09470e+01      -1.01956e+01       2.42736e-04       1.49620e+02
 13.900      2.14118e+02       2.05837e+01      -1.01705e+01       2.39671e-04       1.47282e+02
 14.000      2.13541e+02       2.01160e+01      -1.01542e+01       2.36553e-04       1.44974e+02
 14.100      2.13035e+02       1.95629e+01      -1.01390e+01       2.33389e-04       1.42697e+02
 14.200      2.12595e+02       1.89435e+01      -1.01175e+01       2.30188e-04       1.40448e+02
 14.300      2.12214e+02       1.82768e+01      -1.00820e+01       2.26957e-04       1.38229e+02
 14.400      2.11888e+02       1.75817e+01      -1.00251e+01       2.23703e-04       1.36038e+02
 14.500      2.11612e+02       1.68773e+01      -9.93903e+00       2.20434e-04       1.33875e+02
 14.600      2.11380e+02       1.61826e+01      -9.81635e+00       2.17156e-04       1.31740e+02
 14.700      2.11187e+02       1.55166e+01      -9.64946e+00       2.13876e-04       1.29632e+02
 14.800      2.11028e+02       1.48983e+01      -9.43080e+00       2.10601e-04       1.27551e+02
 14.900      2.10898e+02       1.43467e+01      -9.15278e+00       2.07337e-04       1.25496e+02
 15.000      2.10791e+02       1.38788e+01      -8.80896e+00       2.04089e-04       1.23468e+02
 15.100      2.10706e+02       1.34949e+01      -8.40229e+00       2.00862e-04       1.21466e+02
 15.200      2.10639e+02       1.31865e+01      -7.94049e+00       1.97661e-04       1.19493e+02
 15.300      2.10590e+02       1.29451e+01      -7.43130e+00       1.94490e-04       1.17549e+02
 15.400      2.10557e+02       1.27623e+01      -6.88250e+00       1.91353e-04       1.15634e+02
 15.500      2.10537e+02       1.26297e+01      -6.30182e+00       1.88254e-04       1.13751e+02
 15.600      2.10530e+02       1.25389e+01      -5.69704e+00       1.85195e-04       1.11899e+02
 15.700      2.10534e+02       1.24812e+01      -5.07590e+00       1.82181e-04       1.10080e+02
 15.800      2.10546e+02       1.24484e+01      -4.44615e+00       1.79214e-04       1.08293e+02
 15.900      2.10566e+02       1.24320e+01      -3.81557e+00       1.76297e-04       1.06541e+02
 16.000      2.10591e+02       1.24234e+01      -3.19188e+00       1.73433e-04       1.04822e+02
 16.100      2.10620e+02       1.24144e+01      -2.58287e+00       1.70623e-04       1.03138e+02
 16.200      2.10651e+02       1.23963e+01      -1.99627e+00       1.67870e-04       1.01489e+02
 16.300      2.10682e+02       1.23608e+01      -1.43986e+00       1.65176e-04       9.98749e+01
 16.400      2.10713e+02       1.23015e+01      -9.19464e-01       1.62541e-04       9.82960e+01
 16.500      2.10742e+02       1.22187e+01      -4.34955e-01       1.59964e-04       9.67508e+01
 16.600      2.10771e+02       1.21139e+01       1.50028e-02       1.57440e-04       9.52377e+01
 16.700      2.10800e+02       1.19888e+01       4.31746e-01       1.54968e-04       9.37552e+01
 16.800      2.10830e+02       1.18449e+01       8.16602e-01       1.52544e-04       9.23016e+01
 16.900      2.10860e+02       1.16838e+01       1.17092e+00       1.50166e-04       9.08757e+01
 17.000      2.10891e+02       1.15071e+01       1.49603e+00       1.47832e-04       8.94761e+01
 17.100      2.10923e+02       1.13164e+01       1.79326e+00       1.45538e-04       8.81015e+01
 17.200      2.10958e+02       1.11132e+01       2.06394e+00       1.43283e-04       8.67506e+01
 17.300      2.10994e+02       1.08992e+01       2.30942e+00       1.41065e-04       8.54224e+01
 17.400      2.11034e+02       1.06758e+01       2.53102e+00       1.38881e-04       8.41156e+01
 17.500      2.11076e+02       1.04448e+01       2.73009e+00       1.36730e-04       8.28292e+01
 17.600      2.11122e+02       1.02076e+01       2.90795e+00       1.34609e-04       8.15622e+01
 17.700      2.11171e+02       9.96593e+00       3.06594e+00       1.32517e-04       8.03136e+01
 17.800      2.11224e+02       9.72127e+00       3.20540e+00       1.30453e-04       7.90825e+01
 17.900      2.11282e+02       9.47524e+00       3.32765e+00       1.28414e-04       7.78680e+01
 18.000      2.11345e+02       9.22942e+00       3.43404e+00       1.26400e-04       7.66693e+01
 18.100      2.11414e+02       8.98538e+00       3.52590e+00       1.24408e-04       7.54855e+01
 18.200      2.11488e+02       8.74472e+00       3.60456e+00       1.22438e-04       7.43160e+01
 18.300      2.11567e+02       8.50900e+00       3.67136e+00       1.20488e-04       7.31599e+01
 18.400      2.11654e+02       8.27982e+00       3.72763e+00       1.18556e-04       7.20167e+01
 18.500      2.11747e+02       8.05876e+00       3.77470e+00       1.16643e-04       7.08857e+01
 18.600      2.11847e+02       7.84738e+00       3.81391e+00       1.14747e-04       6.97662e+01
 18.700      2.11955e+02       7.64668e+00       3.84627e+00       1.12867e-04       6.86580e+01
 18.800      2.12069e+02       7.45629e+00       3.87203e+00       1.11005e-04       6.75617e+01
 18.900      2.12190e+02       7.27571e+00       3.89138e+00       1.09162e-04       6.64778e+01
 19.000      2.12315e+02       7.10440e+00       3.90450e+00       1.07339e-04       6.54067e+01
 19.100      2.12446e+02       6.94185e+00       3.91156e+00       1.05539e-04       6.43490e+01
 19.200      2.12580e+02       6.78753e+00       3.91275e+00       1.03761e-04       6.33051e+01
 19.300      2.12718e+02       6.64094e+00       3.90825e+00       1.02007e-04       6.22754e+01
 19.400      2.12859e+02       6.50155e+00       3.89822e+00       1.00278e-04       6.12602e+01
 19.500      2.13002e+02       6.36884e+00       3.88286e+00       9.85743e-05       6.02600e+01
 19.600      2.13146e+02       6.24229e+00       3.86233e+00       9.68974e-05       5.92749e+01
 19.700      2.13291e+02       6.12138e+00       3.83682e+00       9.52476e-05       5.83053e+01
 19.800      2.13436e+02       6.00559e+00       3.80651e+00       9.36257e-05       5.73514e+01
 19.900      2.13580e+02       5.89440e+00       3.77157e+00       9.20322e-05       5.64135e+01
 20.000      2.13723e+02       5.78729e+00       3.73218e+00       9.04677e-05       5.54916e+01
 20.100      2.13865e+02       5.68374e+00       3.68852e+00       8.89325e-05       5.45861e+01
 20.200      2.14004e+02       5.58323e+00       3.64077e+00       8.74271e-05       5.36969e+01
 20.300      2.14139e+02       5.48525e+00       3.58911e+00       8.59520e-05       5.28243e+01
