# Data Source: NASA MERRA (version 2)
# Model Time = 2011-10-10 18:00:00
# Location = [  39.1026,  -84.5123 ]
# Fields = [ Z(km), T(K), U(m/s), V(m/s), R(g/cm3), P(mbar) ]
# Ground Height = 0.165
  0.000      2.99323e+02      -2.08092e+00       3.72156e-01       1.18908e-03       1.02148e+03
  0.100      2.98438e+02      -2.26998e+00       6.58732e-01       1.17898e-03       1.00982e+03
  0.200      2.97609e+02      -2.42680e+00       9.61793e-01       1.16878e-03       9.98302e+02
  0.300      2.96769e+02      -2.58922e+00       1.26199e+00       1.15872e-03       9.86913e+02
  0.400      2.95856e+02      -2.79511e+00       1.53996e+00       1.14902e-03       9.75639e+02
  0.500      2.94826e+02      -3.06905e+00       1.78064e+00       1.13983e-03       9.64469e+02
  0.600      2.93730e+02      -3.37264e+00       1.98921e+00       1.13094e-03       9.53392e+02
  0.700      2.92649e+02      -3.65338e+00       2.18040e+00       1.12203e-03       9.42397e+02
  0.800      2.91641e+02      -3.90753e+00       2.40638e+00       1.11287e-03       9.31486e+02
  0.900      2.90749e+02      -4.16054e+00       2.74016e+00       1.10332e-03       9.20664e+02
  1.000      2.89984e+02      -4.43214e+00       3.18921e+00       1.09334e-03       9.09936e+02
  1.100      2.89314e+02      -4.73407e+00       3.67584e+00       1.08307e-03       8.99307e+02
  1.200      2.88704e+02      -5.07223e+00       4.13673e+00       1.07266e-03       8.88781e+02
  1.300      2.88124e+02      -5.43490e+00       4.57444e+00       1.06221e-03       8.78356e+02
  1.400      2.87546e+02      -5.80673e+00       5.00502e+00       1.05183e-03       8.68029e+02
  1.500      2.86941e+02      -6.17241e+00       5.44455e+00       1.04162e-03       8.57798e+02
  1.600      2.86281e+02      -6.51661e+00       5.90903e+00       1.03169e-03       8.47659e+02
  1.700      2.85553e+02      -6.82802e+00       6.40301e+00       1.02206e-03       8.37612e+02
  1.800      2.84777e+02      -7.10346e+00       6.90774e+00       1.01266e-03       8.27656e+02
  1.900      2.83979e+02      -7.34074e+00       7.40161e+00       1.00340e-03       8.17793e+02
  2.000      2.83182e+02      -7.53766e+00       7.86300e+00       9.94204e-04       8.08021e+02
  2.100      2.82411e+02      -7.69203e+00       8.27031e+00       9.84977e-04       7.98343e+02
  2.200      2.81682e+02      -7.80003e+00       8.60825e+00       9.75670e-04       7.88758e+02
  2.300      2.80991e+02      -7.85392e+00       8.87664e+00       9.66298e-04       7.79264e+02
  2.400      2.80331e+02      -7.84538e+00       9.07758e+00       9.56885e-04       7.69862e+02
  2.500      2.79696e+02      -7.76607e+00       9.21317e+00       9.47457e-04       7.60549e+02
  2.600      2.79078e+02      -7.60768e+00       9.28549e+00       9.38038e-04       7.51325e+02
  2.700      2.78472e+02      -7.36470e+00       9.29578e+00       9.28646e-04       7.42188e+02
  2.800      2.77883e+02      -7.04906e+00       9.24010e+00       9.19273e-04       7.33141e+02
  2.900      2.77315e+02      -6.67938e+00       9.11247e+00       9.09901e-04       7.24186e+02
  3.000      2.76778e+02      -6.27429e+00       8.90695e+00       9.00512e-04       7.15323e+02
  3.100      2.76276e+02      -5.85243e+00       8.61755e+00       8.91091e-04       7.06556e+02
  3.200      2.75817e+02      -5.43238e+00       8.23842e+00       8.81619e-04       6.97885e+02
  3.300      2.75402e+02      -5.02787e+00       7.77487e+00       8.72101e-04       6.89311e+02
  3.400      2.75020e+02      -4.64299e+00       7.25429e+00       8.62570e-04       6.80832e+02
  3.500      2.74659e+02      -4.28073e+00       6.70664e+00       8.53065e-04       6.72447e+02
  3.600      2.74308e+02      -3.94406e+00       6.16188e+00       8.43623e-04       6.64154e+02
  3.700      2.73954e+02      -3.63598e+00       5.64996e+00       8.34279e-04       6.55951e+02
  3.800      2.73586e+02      -3.35946e+00       5.20076e+00       8.25067e-04       6.47836e+02
  3.900      2.73194e+02      -3.11806e+00       4.83515e+00       8.16011e-04       6.39808e+02
  4.000      2.72776e+02      -2.91640e+00       4.55732e+00       8.07119e-04       6.31867e+02
  4.100      2.72327e+02      -2.75920e+00       4.36967e+00       7.98397e-04       6.24011e+02
  4.200      2.71846e+02      -2.65119e+00       4.27460e+00       7.89850e-04       6.16239e+02
  4.300      2.71329e+02      -2.59709e+00       4.27450e+00       7.81483e-04       6.08552e+02
  4.400      2.70773e+02      -2.60163e+00       4.37178e+00       7.73302e-04       6.00948e+02
  4.500      2.70176e+02      -2.66559e+00       4.56577e+00       7.65310e-04       5.93426e+02
  4.600      2.69540e+02      -2.76677e+00       4.83793e+00       7.57495e-04       5.85984e+02
  4.700      2.68870e+02      -2.87462e+00       5.16323e+00       7.49842e-04       5.78619e+02
  4.800      2.68167e+02      -2.95858e+00       5.51665e+00       7.42334e-04       5.71330e+02
  4.900      2.67437e+02      -2.98808e+00       5.87316e+00       7.34958e-04       5.64113e+02
  5.000      2.66683e+02      -2.93256e+00       6.20770e+00       7.27699e-04       5.56966e+02
  5.100      2.65908e+02      -2.76147e+00       6.49527e+00       7.20543e-04       5.49887e+02
  5.200      2.65118e+02      -2.45572e+00       6.71735e+00       7.13473e-04       5.42874e+02
  5.300      2.64322e+02      -2.03993e+00       6.88030e+00       7.06467e-04       5.35929e+02
  5.400      2.63531e+02      -1.54914e+00       6.99641e+00       6.99496e-04       5.29052e+02
  5.500      2.62754e+02      -1.01841e+00       7.07797e+00       6.92536e-04       5.22245e+02
  5.600      2.62003e+02      -4.82777e-01       7.13727e+00       6.85563e-04       5.15508e+02
  5.700      2.61288e+02       2.27158e-02       7.18659e+00       6.78551e-04       5.08843e+02
  5.800      2.60619e+02       4.63024e-01       7.23822e+00       6.71478e-04       5.02250e+02
  5.900      2.60006e+02       8.05773e-01       7.30385e+00       6.64324e-04       4.95730e+02
  6.000      2.59447e+02       1.05089e+00       7.38787e+00       6.57098e-04       4.89284e+02
  6.100      2.58931e+02       1.21973e+00       7.48982e+00       6.49828e-04       4.82908e+02
  6.200      2.58447e+02       1.33402e+00       7.60918e+00       6.42543e-04       4.76602e+02
  6.300      2.57986e+02       1.41551e+00       7.74540e+00       6.35268e-04       4.70365e+02
  6.400      2.57536e+02       1.48593e+00       7.89795e+00       6.28030e-04       4.64194e+02
  6.500      2.57087e+02       1.56701e+00       8.06629e+00       6.20853e-04       4.58090e+02
  6.600      2.56629e+02       1.68051e+00       8.24989e+00       6.13762e-04       4.52051e+02
  6.700      2.56151e+02       1.84699e+00       8.44780e+00       6.06778e-04       4.46075e+02
  6.800      2.55652e+02       2.07306e+00       8.65427e+00       5.99905e-04       4.40164e+02
  6.900      2.55135e+02       2.35615e+00       8.86034e+00       5.93138e-04       4.34319e+02
  7.000      2.54604e+02       2.69349e+00       9.05698e+00       5.86471e-04       4.28543e+02
  7.100      2.54062e+02       3.08233e+00       9.23520e+00       5.79898e-04       4.22837e+02
  7.200      2.53513e+02       3.51992e+00       9.38598e+00       5.73412e-04       4.17204e+02
  7.300      2.52959e+02       4.00350e+00       9.50031e+00       5.67008e-04       4.11643e+02
  7.400      2.52404e+02       4.53031e+00       9.56916e+00       5.60682e-04       4.06158e+02
  7.500      2.51853e+02       5.09760e+00       9.58354e+00       5.54427e-04       4.00749e+02
  7.600      2.51307e+02       5.70208e+00       9.53536e+00       5.48237e-04       3.95417e+02
  7.700      2.50766e+02       6.33714e+00       9.42212e+00       5.42108e-04       3.90154e+02
  7.800      2.50227e+02       6.99494e+00       9.24347e+00       5.36030e-04       3.84951e+02
  7.900      2.49688e+02       7.66762e+00       8.99906e+00       5.29998e-04       3.79800e+02
  8.000      2.49148e+02       8.34734e+00       8.68854e+00       5.24005e-04       3.74691e+02
  8.100      2.48602e+02       9.02625e+00       8.31154e+00       5.18045e-04       3.69619e+02
  8.200      2.48050e+02       9.69649e+00       7.86773e+00       5.12113e-04       3.64574e+02
  8.300      2.47488e+02       1.03502e+01       7.35673e+00       5.06202e-04       3.59550e+02
  8.400      2.46915e+02       1.09796e+01       6.77820e+00       5.00309e-04       3.54541e+02
  8.500      2.46327e+02       1.15767e+01       6.13178e+00       4.94427e-04       3.49540e+02
  8.600      2.45725e+02       1.21353e+01       5.42050e+00       4.88561e-04       3.44548e+02
  8.700      2.45106e+02       1.26536e+01       4.65765e+00       4.82740e-04       3.39585e+02
  8.800      2.44472e+02       1.31306e+01       3.85844e+00       4.76994e-04       3.34676e+02
  8.900      2.43823e+02       1.35655e+01       3.03812e+00       4.71354e-04       3.29840e+02
  9.000      2.43159e+02       1.39573e+01       2.21191e+00       4.65848e-04       3.25100e+02
  9.100      2.42481e+02       1.43053e+01       1.39505e+00       4.60503e-04       3.20474e+02
  9.200      2.41789e+02       1.46084e+01       6.02759e-01       4.55346e-04       3.15980e+02
  9.300      2.41083e+02       1.48657e+01      -1.49730e-01       4.50401e-04       3.11636e+02
  9.400      2.40363e+02       1.50764e+01      -8.47180e-01       4.45692e-04       3.07457e+02
  9.500      2.39630e+02       1.52396e+01      -1.47437e+00       4.41241e-04       3.03458e+02
  9.600      2.38884e+02       1.53543e+01      -2.01607e+00       4.37072e-04       2.99655e+02
  9.700      2.38126e+02       1.54206e+01      -2.46133e+00       4.33192e-04       2.96053e+02
  9.800      2.37357e+02       1.54415e+01      -2.81224e+00       4.29576e-04       2.92633e+02
  9.900      2.36578e+02       1.54203e+01      -3.07331e+00       4.26190e-04       2.89374e+02
 10.000      2.35792e+02       1.53607e+01      -3.24907e+00       4.23004e-04       2.86256e+02
 10.100      2.34999e+02       1.52660e+01      -3.34405e+00       4.19987e-04       2.83259e+02
 10.200      2.34201e+02       1.51397e+01      -3.36277e+00       4.17110e-04       2.80364e+02
 10.300      2.33401e+02       1.49854e+01      -3.30976e+00       4.14345e-04       2.77553e+02
 10.400      2.32598e+02       1.48064e+01      -3.18955e+00       4.11663e-04       2.74808e+02
 10.500      2.31795e+02       1.46062e+01      -3.00666e+00       4.09039e-04       2.72114e+02
 10.600      2.30994e+02       1.43884e+01      -2.76562e+00       4.06444e-04       2.69453e+02
 10.700      2.30195e+02       1.41564e+01      -2.47096e+00       4.03855e-04       2.66811e+02
 10.800      2.29401e+02       1.39136e+01      -2.12720e+00       4.01245e-04       2.64172e+02
 10.900      2.28612e+02       1.36636e+01      -1.73888e+00       3.98591e-04       2.61522e+02
 11.000      2.27831e+02       1.34098e+01      -1.31050e+00       3.95868e-04       2.58849e+02
 11.100      2.27060e+02       1.31557e+01      -8.46608e-01       3.93053e-04       2.56137e+02
 11.200      2.26298e+02       1.29048e+01      -3.51728e-01       3.90124e-04       2.53376e+02
 11.300      2.25549e+02       1.26605e+01       1.69621e-01       3.87058e-04       2.50553e+02
 11.400      2.24813e+02       1.24261e+01       7.12879e-01       3.83839e-04       2.47658e+02
 11.500      2.24090e+02       1.22035e+01       1.27333e+00       3.80462e-04       2.44690e+02
 11.600      2.23380e+02       1.19937e+01       1.84619e+00       3.76931e-04       2.41651e+02
 11.700      2.22682e+02       1.17980e+01       2.42663e+00       3.73252e-04       2.38544e+02
 11.800      2.21995e+02       1.16176e+01       3.00987e+00       3.69428e-04       2.35372e+02
 11.900      2.21318e+02       1.14536e+01       3.59111e+00       3.65464e-04       2.32136e+02
 12.000      2.20650e+02       1.13071e+01       4.16555e+00       3.61366e-04       2.28841e+02
 12.100      2.19992e+02       1.11794e+01       4.72839e+00       3.57137e-04       2.25488e+02
 12.200      2.19342e+02       1.10716e+01       5.27484e+00       3.52785e-04       2.22082e+02
 12.300      2.18699e+02       1.09850e+01       5.80010e+00       3.48313e-04       2.18624e+02
 12.400      2.18063e+02       1.09206e+01       6.29935e+00       3.43727e-04       2.15118e+02
 12.500      2.17433e+02       1.08796e+01       6.76783e+00       3.39034e-04       2.11568e+02
 12.600      2.16808e+02       1.08632e+01       7.20071e+00       3.34238e-04       2.07975e+02
 12.700      2.16187e+02       1.08726e+01       7.59320e+00       3.29346e-04       2.04345e+02
 12.800      2.15570e+02       1.09090e+01       7.94051e+00       3.24363e-04       2.00679e+02
 12.900      2.14957e+02       1.09730e+01       8.23860e+00       3.19298e-04       1.96983e+02
 13.000      2.14348e+02       1.10613e+01       8.48881e+00       3.14166e-04       1.93268e+02
 13.100      2.13745e+02       1.11693e+01       8.69477e+00       3.08988e-04       1.89548e+02
 13.200      2.13151e+02       1.12921e+01       8.86014e+00       3.03782e-04       1.85837e+02
 13.300      2.12567e+02       1.14248e+01       8.98858e+00       2.98566e-04       1.82145e+02
 13.400      2.11996e+02       1.15627e+01       9.08372e+00       2.93356e-04       1.78486e+02
 13.500      2.11439e+02       1.17010e+01       9.14922e+00       2.88169e-04       1.74869e+02
 13.600      2.10898e+02       1.18349e+01       9.18873e+00       2.83019e-04       1.71305e+02
 13.700      2.10376e+02       1.19595e+01       9.20590e+00       2.77920e-04       1.67802e+02
 13.800      2.09874e+02       1.20701e+01       9.20437e+00       2.72885e-04       1.64369e+02
 13.900      2.09394e+02       1.21617e+01       9.18781e+00       2.67926e-04       1.61013e+02
 14.000      2.08938e+02       1.22298e+01       9.15986e+00       2.63053e-04       1.57741e+02
 14.100      2.08509e+02       1.22693e+01       9.12417e+00       2.58277e-04       1.54558e+02
 14.200      2.08108e+02       1.22755e+01       9.08438e+00       2.53606e-04       1.51471e+02
 14.300      2.07737e+02       1.22438e+01       9.04407e+00       2.49049e-04       1.48484e+02
 14.400      2.07396e+02       1.21730e+01       9.00474e+00       2.44608e-04       1.45598e+02
 14.500      2.07085e+02       1.20655e+01       8.96593e+00       2.40278e-04       1.42806e+02
 14.600      2.06802e+02       1.19237e+01       8.92711e+00       2.36055e-04       1.40104e+02
 14.700      2.06546e+02       1.17501e+01       8.88773e+00       2.31935e-04       1.37488e+02
 14.800      2.06315e+02       1.15472e+01       8.84725e+00       2.27913e-04       1.34953e+02
 14.900      2.06109e+02       1.13173e+01       8.80513e+00       2.23986e-04       1.32495e+02
 15.000      2.05927e+02       1.10630e+01       8.76082e+00       2.20150e-04       1.30111e+02
 15.100      2.05767e+02       1.07867e+01       8.71380e+00       2.16401e-04       1.27796e+02
 15.200      2.05627e+02       1.04908e+01       8.66351e+00       2.12737e-04       1.25547e+02
 15.300      2.05508e+02       1.01779e+01       8.60941e+00       2.09155e-04       1.23361e+02
 15.400      2.05407e+02       9.85041e+00       8.55097e+00       2.05650e-04       1.21234e+02
 15.500      2.05323e+02       9.51074e+00       8.48765e+00       2.02221e-04       1.19164e+02
 15.600      2.05256e+02       9.16137e+00       8.41889e+00       1.98864e-04       1.17147e+02
 15.700      2.05203e+02       8.80477e+00       8.34416e+00       1.95577e-04       1.15182e+02
 15.800      2.05165e+02       8.44338e+00       8.26292e+00       1.92357e-04       1.13264e+02
 15.900      2.05139e+02       8.07968e+00       8.17463e+00       1.89202e-04       1.11393e+02
 16.000      2.05125e+02       7.71611e+00       8.07874e+00       1.86110e-04       1.09564e+02
 16.100      2.05121e+02       7.35514e+00       7.97472e+00       1.83078e-04       1.07777e+02
 16.200      2.05125e+02       6.99922e+00       7.86203e+00       1.80104e-04       1.06029e+02
 16.300      2.05138e+02       6.65082e+00       7.74012e+00       1.77186e-04       1.04317e+02
 16.400      2.05158e+02       6.31239e+00       7.60844e+00       1.74322e-04       1.02641e+02
 16.500      2.05182e+02       5.98638e+00       7.46647e+00       1.71510e-04       1.00998e+02
 16.600      2.05212e+02       5.67523e+00       7.31367e+00       1.68748e-04       9.93855e+01
 16.700      2.05244e+02       5.38015e+00       7.15003e+00       1.66035e-04       9.78032e+01
 16.800      2.05281e+02       5.10070e+00       6.97626e+00       1.63368e-04       9.62497e+01
 16.900      2.05322e+02       4.83630e+00       6.79309e+00       1.60747e-04       9.47238e+01
 17.000      2.05367e+02       4.58640e+00       6.60129e+00       1.58168e-04       9.32245e+01
 17.100      2.05416e+02       4.35042e+00       6.40160e+00       1.55631e-04       9.17510e+01
 17.200      2.05469e+02       4.12781e+00       6.19477e+00       1.53133e-04       9.03021e+01
 17.300      2.05527e+02       3.91801e+00       5.98155e+00       1.50674e-04       8.88772e+01
 17.400      2.05591e+02       3.72044e+00       5.76268e+00       1.48252e-04       8.74752e+01
 17.500      2.05659e+02       3.53454e+00       5.53893e+00       1.45865e-04       8.60954e+01
 17.600      2.05732e+02       3.35975e+00       5.31104e+00       1.43512e-04       8.47370e+01
 17.700      2.05811e+02       3.19551e+00       5.07975e+00       1.41193e-04       8.33993e+01
 17.800      2.05895e+02       3.04125e+00       4.84582e+00       1.38905e-04       8.20815e+01
 17.900      2.05985e+02       2.89640e+00       4.61000e+00       1.36648e-04       8.07829e+01
 18.000      2.06081e+02       2.76041e+00       4.37303e+00       1.34420e-04       7.95029e+01
 18.100      2.06183e+02       2.63271e+00       4.13567e+00       1.32220e-04       7.82407e+01
 18.200      2.06291e+02       2.51273e+00       3.89867e+00       1.30049e-04       7.69960e+01
 18.300      2.06406e+02       2.39991e+00       3.66277e+00       1.27903e-04       7.57680e+01
 18.400      2.06527e+02       2.29369e+00       3.42873e+00       1.25784e-04       7.45562e+01
 18.500      2.06655e+02       2.19350e+00       3.19729e+00       1.23689e-04       7.33601e+01
 18.600      2.06790e+02       2.09877e+00       2.96920e+00       1.21619e-04       7.21792e+01
 18.700      2.06932e+02       2.00895e+00       2.74522e+00       1.19571e-04       7.10129e+01
 18.800      2.07082e+02       1.92347e+00       2.52609e+00       1.17547e-04       6.98610e+01
 18.900      2.07239e+02       1.84185e+00       2.31244e+00       1.15544e-04       6.87230e+01
 19.000      2.07402e+02       1.76381e+00       2.10451e+00       1.13566e-04       6.75993e+01
 19.100      2.07572e+02       1.68912e+00       1.90251e+00       1.11611e-04       6.64903e+01
 19.200      2.07747e+02       1.61755e+00       1.70663e+00       1.09682e-04       6.53962e+01
 19.300      2.07926e+02       1.54887e+00       1.51708e+00       1.07780e-04       6.43174e+01
 19.400      2.08110e+02       1.48286e+00       1.33403e+00       1.05904e-04       6.32541e+01
 19.500      2.08297e+02       1.41927e+00       1.15769e+00       1.04057e-04       6.22066e+01
 19.600      2.08487e+02       1.35788e+00       9.88263e-01       1.02238e-04       6.11750e+01
 19.700      2.08678e+02       1.29845e+00       8.25932e-01       1.00449e-04       6.01596e+01
 19.800      2.08871e+02       1.24076e+00       6.70901e-01       9.86897e-05       5.91605e+01
 19.900      2.09064e+02       1.18457e+00       5.23359e-01       9.69606e-05       5.81778e+01
 20.000      2.09258e+02       1.12966e+00       3.83505e-01       9.52623e-05       5.72117e+01
 20.100      2.09450e+02       1.07578e+00       2.51535e-01       9.35952e-05       5.62622e+01
 20.200      2.09642e+02       1.02272e+00       1.27644e-01       9.19596e-05       5.53295e+01
 20.300      2.09831e+02       9.70232e-01       1.20297e-02       9.03557e-05       5.44136e+01
