# Data Source: NASA MERRA (version 1)
# Model Time = 2010-03-13 18:00:00
# Location = [  39.7393, -104.9900 ]
# Fields = [ Z(km), T(K), U(m/s), V(m/s), R(g/cm3), P(mbar) ]
# Ground Height = 1.589
  0.000      2.94234e+02      -8.56342e-01       2.07844e+00       1.19163e-03       1.00627e+03
  0.100      2.93607e+02      -8.67869e-01       2.10056e+00       1.18022e-03       9.94512e+02
  0.200      2.92976e+02      -8.73502e-01       2.11445e+00       1.16893e-03       9.82884e+02
  0.300      2.92334e+02      -8.60884e-01       2.10284e+00       1.15777e-03       9.71368e+02
  0.400      2.91683e+02      -8.33319e-01       2.06974e+00       1.14672e-03       9.59957e+02
  0.500      2.91040e+02      -8.19495e-01       2.05370e+00       1.13574e-03       9.48663e+02
  0.600      2.90414e+02      -8.40397e-01       2.07696e+00       1.12478e-03       9.37493e+02
  0.700      2.89779e+02      -8.88805e-01       2.10691e+00       1.11396e-03       9.26445e+02
  0.800      2.89113e+02      -9.49870e-01       2.10779e+00       1.10335e-03       9.15514e+02
  0.900      2.88446e+02      -9.92572e-01       2.08172e+00       1.09284e-03       9.04696e+02
  1.000      2.87821e+02      -9.82028e-01       2.04456e+00       1.08225e-03       8.93987e+02
  1.100      2.87243e+02      -9.19936e-01       2.00794e+00       1.07157e-03       8.83386e+02
  1.200      2.86679e+02      -8.39054e-01       1.97986e+00       1.06092e-03       8.72894e+02
  1.300      2.86098e+02      -7.73125e-01       1.96819e+00       1.05043e-03       8.62512e+02
  1.400      2.85469e+02      -7.55893e-01       1.98081e+00       1.04021e-03       8.52240e+02
  1.500      2.84763e+02      -8.16366e-01       2.02468e+00       1.03036e-03       8.42079e+02
  1.600      2.83982e+02      -9.46266e-01       2.09933e+00       1.02085e-03       8.32025e+02
  1.700      2.83145e+02      -1.11967e+00       2.20079e+00       1.01163e-03       8.22073e+02
  1.800      2.82267e+02      -1.31053e+00       2.32508e+00       1.00260e-03       8.12217e+02
  1.900      2.81367e+02      -1.49284e+00       2.46822e+00       9.93718e-04       8.02452e+02
  2.000      2.80461e+02      -1.64240e+00       2.62484e+00       9.84905e-04       7.92773e+02
  2.100      2.79557e+02      -1.75133e+00       2.77741e+00       9.76135e-04       7.83181e+02
  2.200      2.78658e+02      -1.82016e+00       2.90209e+00       9.67395e-04       7.73673e+02
  2.300      2.77769e+02      -1.84951e+00       2.97502e+00       9.58673e-04       7.64252e+02
  2.400      2.76894e+02      -1.83999e+00       2.97230e+00       9.49957e-04       7.54917e+02
  2.500      2.76036e+02      -1.79207e+00       2.87096e+00       9.41235e-04       7.45668e+02
  2.600      2.75199e+02      -1.70245e+00       2.67234e+00       9.32496e-04       7.36505e+02
  2.700      2.74386e+02      -1.56375e+00       2.40410e+00       9.23734e-04       7.27429e+02
  2.800      2.73600e+02      -1.36839e+00       2.09524e+00       9.14939e-04       7.18440e+02
  2.900      2.72844e+02      -1.10876e+00       1.77472e+00       9.06104e-04       7.09536e+02
  3.000      2.72121e+02      -7.77300e-01       1.47154e+00       8.97220e-04       7.00718e+02
  3.100      2.71433e+02      -3.70797e-01       1.21084e+00       8.88286e-04       6.91987e+02
  3.200      2.70773e+02       9.14599e-02       9.98224e-01       8.79326e-04       6.83341e+02
  3.300      2.70133e+02       5.83009e-01       8.33022e-01       8.70370e-04       6.74782e+02
  3.400      2.69504e+02       1.07739e+00       7.14578e-01       8.61449e-04       6.66309e+02
  3.500      2.68876e+02       1.54814e+00       6.42232e-01       8.52591e-04       6.57923e+02
  3.600      2.68242e+02       1.96879e+00       6.15323e-01       8.43826e-04       6.49623e+02
  3.700      2.67595e+02       2.31954e+00       6.32145e-01       8.35171e-04       6.41409e+02
  3.800      2.66938e+02       2.60377e+00       6.87348e-01       8.26615e-04       6.33280e+02
  3.900      2.66278e+02       2.82994e+00       7.74784e-01       8.18140e-04       6.25236e+02
  4.000      2.65619e+02       3.00650e+00       8.88306e-01       8.09727e-04       6.17275e+02
  4.100      2.64967e+02       3.14189e+00       1.02177e+00       8.01359e-04       6.09397e+02
  4.200      2.64327e+02       3.24457e+00       1.16902e+00       7.93021e-04       6.01601e+02
  4.300      2.63704e+02       3.32208e+00       1.32452e+00       7.84699e-04       5.93885e+02
  4.400      2.63096e+02       3.37518e+00       1.48716e+00       7.76402e-04       5.86249e+02
  4.500      2.62495e+02       3.40150e+00       1.65790e+00       7.68149e-04       5.78694e+02
  4.600      2.61896e+02       3.39867e+00       1.83770e+00       7.59960e-04       5.71218e+02
  4.700      2.61293e+02       3.36431e+00       2.02753e+00       7.51851e-04       5.63821e+02
  4.800      2.60678e+02       3.29606e+00       2.22833e+00       7.43841e-04       5.56502e+02
  4.900      2.60047e+02       3.19155e+00       2.44108e+00       7.35945e-04       5.49262e+02
  5.000      2.59394e+02       3.05202e+00       2.66577e+00       7.28177e-04       5.42099e+02
  5.100      2.58719e+02       2.88945e+00       2.89951e+00       7.20534e-04       5.35013e+02
  5.200      2.58021e+02       2.71777e+00       3.13890e+00       7.13013e-04       5.28002e+02
  5.300      2.57302e+02       2.55091e+00       3.38056e+00       7.05612e-04       5.21064e+02
  5.400      2.56561e+02       2.40281e+00       3.62106e+00       6.98326e-04       5.14198e+02
  5.500      2.55798e+02       2.28739e+00       3.85701e+00       6.91154e-04       5.07403e+02
  5.600      2.55013e+02       2.21859e+00       4.08502e+00       6.84092e-04       5.00678e+02
  5.700      2.54207e+02       2.20789e+00       4.30179e+00       6.77136e-04       4.94021e+02
  5.800      2.53384e+02       2.25338e+00       4.50466e+00       6.70274e-04       4.87432e+02
  5.900      2.52548e+02       2.34866e+00       4.69118e+00       6.63495e-04       4.80910e+02
  6.000      2.51704e+02       2.48733e+00       4.85890e+00       6.56786e-04       4.74455e+02
  6.100      2.50855e+02       2.66298e+00       5.00538e+00       6.50134e-04       4.68066e+02
  6.200      2.50006e+02       2.86918e+00       5.12816e+00       6.43528e-04       4.61742e+02
  6.300      2.49162e+02       3.09955e+00       5.22479e+00       6.36955e-04       4.55482e+02
  6.400      2.48326e+02       3.34766e+00       5.29283e+00       6.30405e-04       4.49287e+02
  6.500      2.47503e+02       3.60682e+00       5.33256e+00       6.23871e-04       4.43155e+02
  6.600      2.46689e+02       3.86954e+00       5.35204e+00       6.17356e-04       4.37087e+02
  6.700      2.45885e+02       4.12816e+00       5.36071e+00       6.10868e-04       4.31082e+02
  6.800      2.45086e+02       4.37505e+00       5.36798e+00       6.04411e-04       4.25140e+02
  6.900      2.44291e+02       4.60257e+00       5.38329e+00       5.97991e-04       4.19261e+02
  7.000      2.43498e+02       4.80306e+00       5.41606e+00       5.91615e-04       4.13443e+02
  7.100      2.42705e+02       4.96890e+00       5.47572e+00       5.85287e-04       4.07689e+02
  7.200      2.41909e+02       5.09243e+00       5.57170e+00       5.79012e-04       4.01995e+02
  7.300      2.41108e+02       5.16689e+00       5.71256e+00       5.72796e-04       3.96364e+02
  7.400      2.40303e+02       5.19658e+00       5.89605e+00       5.66638e-04       3.90793e+02
  7.500      2.39494e+02       5.19326e+00       6.11256e+00       5.60536e-04       3.85283e+02
  7.600      2.38682e+02       5.16888e+00       6.35236e+00       5.54487e-04       3.79833e+02
  7.700      2.37868e+02       5.13535e+00       6.60569e+00       5.48488e-04       3.74442e+02
  7.800      2.37052e+02       5.10460e+00       6.86281e+00       5.42537e-04       3.69109e+02
  7.900      2.36236e+02       5.08858e+00       7.11398e+00       5.36632e-04       3.63835e+02
  8.000      2.35420e+02       5.09919e+00       7.34945e+00       5.30770e-04       3.58618e+02
  8.100      2.34606e+02       5.14837e+00       7.55948e+00       5.24949e-04       3.53458e+02
  8.200      2.33794e+02       5.24793e+00       7.73439e+00       5.19166e-04       3.48355e+02
  8.300      2.32985e+02       5.40195e+00       7.86959e+00       5.13420e-04       3.43307e+02
  8.400      2.32179e+02       5.60219e+00       7.96851e+00       5.07712e-04       3.38315e+02
  8.500      2.31375e+02       5.83935e+00       8.03531e+00       5.02042e-04       3.33380e+02
  8.600      2.30574e+02       6.10409e+00       8.07415e+00       4.96411e-04       3.28499e+02
  8.700      2.29776e+02       6.38710e+00       8.08918e+00       4.90819e-04       3.23675e+02
  8.800      2.28981e+02       6.67907e+00       8.08456e+00       4.85267e-04       3.18906e+02
  8.900      2.28189e+02       6.97065e+00       8.06445e+00       4.79754e-04       3.14192e+02
  9.000      2.27399e+02       7.25255e+00       8.03301e+00       4.74282e-04       3.09533e+02
  9.100      2.26612e+02       7.51544e+00       7.99439e+00       4.68850e-04       3.04929e+02
  9.200      2.25828e+02       7.74999e+00       7.95275e+00       4.63460e-04       3.00380e+02
  9.300      2.25047e+02       7.94894e+00       7.91207e+00       4.58110e-04       2.95886e+02
  9.400      2.24268e+02       8.11561e+00       7.87542e+00       4.52800e-04       2.91445e+02
  9.500      2.23494e+02       8.25673e+00       7.84561e+00       4.47526e-04       2.87056e+02
  9.600      2.22725e+02       8.37902e+00       7.82540e+00       4.42287e-04       2.82719e+02
  9.700      2.21961e+02       8.48922e+00       7.81758e+00       4.37080e-04       2.78433e+02
  9.800      2.21203e+02       8.59404e+00       7.82494e+00       4.31904e-04       2.74196e+02
  9.900      2.20453e+02       8.70022e+00       7.85027e+00       4.26755e-04       2.70007e+02
 10.000      2.19709e+02       8.81447e+00       7.89634e+00       4.21633e-04       2.65867e+02
 10.100      2.18974e+02       8.94353e+00       7.96595e+00       4.16535e-04       2.61774e+02
 10.200      2.18248e+02       9.09412e+00       8.06188e+00       4.11460e-04       2.57727e+02
 10.300      2.17531e+02       9.27298e+00       8.18691e+00       4.06405e-04       2.53725e+02
 10.400      2.16825e+02       9.48681e+00       8.34383e+00       4.01371e-04       2.49768e+02
 10.500      2.16131e+02       9.73975e+00       8.53353e+00       3.96352e-04       2.45856e+02
 10.600      2.15454e+02       1.00272e+01       8.75052e+00       3.91345e-04       2.41989e+02
 10.700      2.14799e+02       1.03426e+01       8.98798e+00       3.86343e-04       2.38170e+02
 10.800      2.14173e+02       1.06796e+01       9.23909e+00       3.81338e-04       2.34399e+02
 10.900      2.13580e+02       1.10317e+01       9.49705e+00       3.76327e-04       2.30679e+02
 11.000      2.13027e+02       1.13925e+01       9.75502e+00       3.71303e-04       2.27009e+02
 11.100      2.12518e+02       1.17555e+01       1.00062e+01       3.66260e-04       2.23392e+02
 11.200      2.12061e+02       1.21142e+01       1.02438e+01       3.61195e-04       2.19829e+02
 11.300      2.11660e+02       1.24622e+01       1.04609e+01       3.56102e-04       2.16319e+02
 11.400      2.11320e+02       1.27931e+01       1.06508e+01       3.50978e-04       2.12864e+02
 11.500      2.11048e+02       1.31003e+01       1.08066e+01       3.45818e-04       2.09465e+02
 11.600      2.10850e+02       1.33774e+01       1.09216e+01       3.40620e-04       2.06123e+02
 11.700      2.10730e+02       1.36180e+01       1.09888e+01       3.35381e-04       2.02837e+02
 11.800      2.10694e+02       1.38156e+01       1.10015e+01       3.30098e-04       1.99608e+02
 11.900      2.10746e+02       1.39663e+01       1.09556e+01       3.24774e-04       1.96436e+02
 12.000      2.10878e+02       1.40727e+01       1.08545e+01       3.19423e-04       1.93321e+02
 12.100      2.11084e+02       1.41391e+01       1.07028e+01       3.14060e-04       1.90261e+02
 12.200      2.11356e+02       1.41693e+01       1.05052e+01       3.08699e-04       1.87254e+02
 12.300      2.11686e+02       1.41674e+01       1.02665e+01       3.03355e-04       1.84300e+02
 12.400      2.12068e+02       1.41375e+01       9.99122e+00       2.98039e-04       1.81397e+02
 12.500      2.12493e+02       1.40834e+01       9.68418e+00       2.92765e-04       1.78545e+02
 12.600      2.12955e+02       1.40093e+01       9.35003e+00       2.87544e-04       1.75741e+02
 12.700      2.13446e+02       1.39192e+01       8.99345e+00       2.82385e-04       1.72986e+02
 12.800      2.13958e+02       1.38171e+01       8.61912e+00       2.77299e-04       1.70278e+02
 12.900      2.14484e+02       1.37069e+01       8.23175e+00       2.72295e-04       1.67617e+02
 13.000      2.15017e+02       1.35928e+01       7.83600e+00       2.67380e-04       1.65000e+02
 13.100      2.15549e+02       1.34786e+01       7.43658e+00       2.62561e-04       1.62427e+02
 13.200      2.16073e+02       1.33685e+01       7.03817e+00       2.57847e-04       1.59898e+02
 13.300      2.16581e+02       1.32665e+01       6.64545e+00       2.53241e-04       1.57411e+02
 13.400      2.17065e+02       1.31765e+01       6.26311e+00       2.48750e-04       1.54966e+02
 13.500      2.17520e+02       1.31027e+01       5.89585e+00       2.44379e-04       1.52561e+02
 13.600      2.17936e+02       1.30489e+01       5.54834e+00       2.40131e-04       1.50196e+02
 13.700      2.18307e+02       1.30185e+01       5.22462e+00       2.36010e-04       1.47870e+02
 13.800      2.18634e+02       1.30106e+01       4.92525e+00       2.32010e-04       1.45582e+02
 13.900      2.18918e+02       1.30233e+01       4.64975e+00       2.28127e-04       1.43331e+02
 14.000      2.19161e+02       1.30545e+01       4.39757e+00       2.24354e-04       1.41117e+02
 14.100      2.19363e+02       1.31022e+01       4.16823e+00       2.20687e-04       1.38938e+02
 14.200      2.19527e+02       1.31643e+01       3.96119e+00       2.17119e-04       1.36794e+02
 14.300      2.19654e+02       1.32388e+01       3.77596e+00       2.13647e-04       1.34685e+02
 14.400      2.19746e+02       1.33237e+01       3.61200e+00       2.10266e-04       1.32608e+02
 14.500      2.19804e+02       1.34168e+01       3.46881e+00       2.06970e-04       1.30565e+02
 14.600      2.19830e+02       1.35163e+01       3.34588e+00       2.03757e-04       1.28553e+02
 14.700      2.19825e+02       1.36200e+01       3.24269e+00       2.00623e-04       1.26572e+02
 14.800      2.19791e+02       1.37258e+01       3.15873e+00       1.97562e-04       1.24623e+02
 14.900      2.19730e+02       1.38319e+01       3.09348e+00       1.94573e-04       1.22703e+02
 15.000      2.19643e+02       1.39361e+01       3.04642e+00       1.91651e-04       1.20812e+02
 15.100      2.19532e+02       1.40363e+01       3.01706e+00       1.88794e-04       1.18950e+02
 15.200      2.19397e+02       1.41306e+01       3.00486e+00       1.85997e-04       1.17117e+02
 15.300      2.19242e+02       1.42169e+01       3.00932e+00       1.83259e-04       1.15311e+02
 15.400      2.19067e+02       1.42931e+01       3.02993e+00       1.80576e-04       1.13532e+02
 15.500      2.18873e+02       1.43573e+01       3.06616e+00       1.77946e-04       1.11780e+02
 15.600      2.18664e+02       1.44074e+01       3.11751e+00       1.75365e-04       1.10053e+02
 15.700      2.18439e+02       1.44414e+01       3.18346e+00       1.72833e-04       1.08352e+02
 15.800      2.18201e+02       1.44571e+01       3.26350e+00       1.70345e-04       1.06676e+02
 15.900      2.17951e+02       1.44526e+01       3.35711e+00       1.67900e-04       1.05025e+02
 16.000      2.17691e+02       1.44259e+01       3.46378e+00       1.65496e-04       1.03397e+02
 16.100      2.17422e+02       1.43748e+01       3.58300e+00       1.63130e-04       1.01793e+02
 16.200      2.17145e+02       1.42974e+01       3.71424e+00       1.60801e-04       1.00212e+02
 16.300      2.16864e+02       1.41920e+01       3.85688e+00       1.58506e-04       9.86541e+01
 16.400      2.16578e+02       1.40593e+01       4.00947e+00       1.56245e-04       9.71182e+01
 16.500      2.16289e+02       1.39007e+01       4.17031e+00       1.54015e-04       9.56046e+01
 16.600      2.15998e+02       1.37177e+01       4.33768e+00       1.51816e-04       9.41128e+01
 16.700      2.15708e+02       1.35119e+01       4.50985e+00       1.49646e-04       9.26428e+01
 16.800      2.15418e+02       1.32848e+01       4.68511e+00       1.47504e-04       9.11941e+01
 16.900      2.15131e+02       1.30378e+01       4.86174e+00       1.45388e-04       8.97665e+01
 17.000      2.14847e+02       1.27725e+01       5.03802e+00       1.43299e-04       8.83599e+01
 17.100      2.14569e+02       1.24904e+01       5.21224e+00       1.41234e-04       8.69739e+01
 17.200      2.14297e+02       1.21930e+01       5.38267e+00       1.39193e-04       8.56083e+01
 17.300      2.14032e+02       1.18817e+01       5.54759e+00       1.37175e-04       8.42630e+01
 17.400      2.13777e+02       1.15582e+01       5.70530e+00       1.35179e-04       8.29375e+01
 17.500      2.13531e+02       1.12238e+01       5.85406e+00       1.33203e-04       8.16318e+01
 17.600      2.13298e+02       1.08802e+01       5.99216e+00       1.31248e-04       8.03455e+01
 17.700      2.13077e+02       1.05287e+01       6.11789e+00       1.29312e-04       7.90784e+01
 17.800      2.12871e+02       1.01710e+01       6.22952e+00       1.27394e-04       7.78304e+01
 17.900      2.12681e+02       9.80846e+00       6.32533e+00       1.25495e-04       7.66010e+01
 18.000      2.12507e+02       9.44265e+00       6.40361e+00       1.23612e-04       7.53903e+01
 18.100      2.12352e+02       9.07507e+00       6.46264e+00       1.21746e-04       7.41977e+01
 18.200      2.12216e+02       8.70722e+00       6.50070e+00       1.19895e-04       7.30233e+01
 18.300      2.12101e+02       8.34061e+00       6.51608e+00       1.18060e-04       7.18667e+01
 18.400      2.12008e+02       7.97673e+00       6.50704e+00       1.16240e-04       7.07276e+01
 18.500      2.11939e+02       7.61709e+00       6.47191e+00       1.14434e-04       6.96060e+01
 18.600      2.11893e+02       7.26288e+00       6.41038e+00       1.12642e-04       6.85015e+01
 18.700      2.11870e+02       6.91483e+00       6.32424e+00       1.10866e-04       6.74141e+01
 18.800      2.11867e+02       6.57364e+00       6.21541e+00       1.09107e-04       6.63436e+01
 18.900      2.11884e+02       6.24001e+00       6.08583e+00       1.07366e-04       6.52899e+01
 19.000      2.11917e+02       5.91462e+00       5.93744e+00       1.05644e-04       6.42527e+01
 19.100      2.11966e+02       5.59818e+00       5.77216e+00       1.03942e-04       6.32321e+01
 19.200      2.12028e+02       5.29139e+00       5.59193e+00       1.02261e-04       6.22278e+01
 19.300      2.12103e+02       4.99495e+00       5.39869e+00       1.00601e-04       6.12397e+01
 19.400      2.12189e+02       4.70954e+00       5.19437e+00       9.89643e-05       6.02675e+01
 19.500      2.12283e+02       4.43586e+00       4.98090e+00       9.73506e-05       5.93112e+01
 19.600      2.12385e+02       4.17462e+00       4.76022e+00       9.57608e-05       5.83706e+01
 19.700      2.12493e+02       3.92651e+00       4.53426e+00       9.41956e-05       5.74455e+01
 19.800      2.12604e+02       3.69224e+00       4.30496e+00       9.26554e-05       5.65358e+01
 19.900      2.12717e+02       3.47248e+00       4.07425e+00       9.11406e-05       5.56413e+01
 20.000      2.12832e+02       3.26795e+00       3.84407e+00       8.96518e-05       5.47617e+01
 20.100      2.12945e+02       3.07933e+00       3.61634e+00       8.81894e-05       5.38971e+01
 20.200      2.13055e+02       2.90733e+00       3.39301e+00       8.67536e-05       5.30471e+01
 20.300      2.13162e+02       2.75265e+00       3.17601e+00       8.53447e-05       5.22116e+01
