# Data Source: NASA MERRA (version 2)
# Model Time = 2011-06-15 18:00:00
# Location = [  39.1026,  -84.5123 ]
# Fields = [ Z(km), T(K), U(m/s), V(m/s), R(g/cm3), P(mbar) ]
# Ground Height = 0.165
  0.000      2.92456e+02      -4.91631e+00       1.58504e+00       1.20447e-03       1.01098e+03
  0.100      2.91803e+02      -4.99807e+00       1.47243e+00       1.19313e-03       9.99211e+02
  0.200      2.91140e+02      -5.09377e+00       1.39361e+00       1.18193e-03       9.87583e+02
  0.300      2.90328e+02      -5.41034e+00       1.84969e+00       1.17142e-03       9.76076e+02
  0.400      2.89280e+02      -6.08035e+00       3.19666e+00       1.16193e-03       9.64677e+02
  0.500      2.88194e+02      -6.84161e+00       5.01954e+00       1.15266e-03       9.53381e+02
  0.600      2.87340e+02      -7.32128e+00       6.70041e+00       1.14251e-03       9.42186e+02
  0.700      2.86816e+02      -7.35259e+00       8.15978e+00       1.13112e-03       9.31095e+02
  0.800      2.86615e+02      -6.89359e+00       9.62783e+00       1.11856e-03       9.20111e+02
  0.900      2.86691e+02      -5.99088e+00       1.10713e+01       1.10506e-03       9.09246e+02
  1.000      2.86961e+02      -4.79102e+00       1.21494e+01       1.09100e-03       8.98523e+02
  1.100      2.87339e+02      -3.43609e+00       1.26303e+01       1.07675e-03       8.87954e+02
  1.200      2.87739e+02      -2.04159e+00       1.26178e+01       1.06263e-03       8.77532e+02
  1.300      2.88078e+02      -7.18624e-01       1.22706e+01       1.04894e-03       8.67247e+02
  1.400      2.88270e+02       4.21689e-01       1.17473e+01       1.03596e-03       8.57088e+02
  1.500      2.88233e+02       1.26921e+00       1.12060e+01       1.02396e-03       8.47046e+02
  1.600      2.87932e+02       1.79243e+00       1.07427e+01       1.01301e-03       8.37113e+02
  1.700      2.87418e+02       2.09483e+00       1.03477e+01       1.00290e-03       8.27283e+02
  1.800      2.86753e+02       2.29318e+00       1.00006e+01       9.93405e-04       8.17553e+02
  1.900      2.85996e+02       2.50426e+00       9.68119e+00       9.84297e-04       8.07919e+02
  2.000      2.85208e+02       2.84470e+00       9.36925e+00       9.75358e-04       7.98375e+02
  2.100      2.84433e+02       3.38830e+00       9.05095e+00       9.66432e-04       7.88920e+02
  2.200      2.83679e+02       4.10513e+00       8.72809e+00       9.57493e-04       7.79552e+02
  2.300      2.82948e+02       4.94987e+00       8.40480e+00       9.48538e-04       7.70271e+02
  2.400      2.82243e+02       5.87717e+00       8.08521e+00       9.39559e-04       7.61077e+02
  2.500      2.81564e+02       6.84172e+00       7.77344e+00       9.30553e-04       7.51969e+02
  2.600      2.80914e+02       7.80146e+00       7.47355e+00       9.21518e-04       7.42948e+02
  2.700      2.80287e+02       8.74002e+00       7.18914e+00       9.12471e-04       7.34013e+02
  2.800      2.79676e+02       9.65310e+00       6.92358e+00       9.03440e-04       7.25164e+02
  2.900      2.79073e+02       1.05365e+01       6.68024e+00       8.94450e-04       7.16401e+02
  3.000      2.78471e+02       1.13860e+01       6.46249e+00       8.85527e-04       7.07723e+02
  3.100      2.77861e+02       1.21973e+01       6.27368e+00       8.76696e-04       6.99131e+02
  3.200      2.77239e+02       1.29672e+01       6.11736e+00       8.67971e-04       6.90624e+02
  3.300      2.76607e+02       1.36946e+01       5.99750e+00       8.59343e-04       6.82201e+02
  3.400      2.75970e+02       1.43794e+01       5.91817e+00       8.50798e-04       6.73861e+02
  3.500      2.75332e+02       1.50209e+01       5.88343e+00       8.42320e-04       6.65604e+02
  3.600      2.74697e+02       1.56190e+01       5.89735e+00       8.33898e-04       6.57429e+02
  3.700      2.74069e+02       1.61731e+01       5.96399e+00       8.25518e-04       6.49335e+02
  3.800      2.73452e+02       1.66844e+01       6.08196e+00       8.17170e-04       6.41321e+02
  3.900      2.72843e+02       1.71593e+01       6.23277e+00       8.08862e-04       6.33388e+02
  4.000      2.72241e+02       1.76048e+01       6.39461e+00       8.00600e-04       6.25534e+02
  4.100      2.71642e+02       1.80281e+01       6.54566e+00       7.92394e-04       6.17760e+02
  4.200      2.71045e+02       1.84364e+01       6.66411e+00       7.84248e-04       6.10065e+02
  4.300      2.70446e+02       1.88368e+01       6.72815e+00       7.76172e-04       6.02450e+02
  4.400      2.69844e+02       1.92352e+01       6.71750e+00       7.68172e-04       5.94913e+02
  4.500      2.69241e+02       1.96204e+01       6.62924e+00       7.60240e-04       5.87454e+02
  4.600      2.68640e+02       1.99710e+01       6.47135e+00       7.52367e-04       5.80072e+02
  4.700      2.68046e+02       2.02654e+01       6.25198e+00       7.44539e-04       5.72768e+02
  4.800      2.67463e+02       2.04820e+01       5.97929e+00       7.36746e-04       5.65540e+02
  4.900      2.66895e+02       2.05990e+01       5.66143e+00       7.28976e-04       5.58387e+02
  5.000      2.66346e+02       2.05949e+01       5.30655e+00       7.21218e-04       5.51310e+02
  5.100      2.65821e+02       2.04521e+01       4.92273e+00       7.13465e-04       5.44307e+02
  5.200      2.65315e+02       2.01814e+01       4.51748e+00       7.05726e-04       5.37378e+02
  5.300      2.64825e+02       1.98061e+01       4.09808e+00       6.98014e-04       5.30524e+02
  5.400      2.64345e+02       1.93494e+01       3.67182e+00       6.90345e-04       5.23745e+02
  5.500      2.63871e+02       1.88346e+01       3.24598e+00       6.82733e-04       5.17040e+02
  5.600      2.63397e+02       1.82849e+01       2.82782e+00       6.75191e-04       5.10411e+02
  5.700      2.62919e+02       1.77236e+01       2.42463e+00       6.67732e-04       5.03856e+02
  5.800      2.62432e+02       1.71736e+01       2.04361e+00       6.60369e-04       4.97376e+02
  5.900      2.61931e+02       1.66491e+01       1.68898e+00       6.53109e-04       4.90969e+02
  6.000      2.61415e+02       1.61526e+01       1.36119e+00       6.45954e-04       4.84634e+02
  6.100      2.60880e+02       1.56859e+01       1.06042e+00       6.38907e-04       4.78367e+02
  6.200      2.60326e+02       1.52511e+01       7.86861e-01       6.31969e-04       4.72166e+02
  6.300      2.59749e+02       1.48498e+01       5.40696e-01       6.25141e-04       4.66029e+02
  6.400      2.59147e+02       1.44840e+01       3.22117e-01       6.18424e-04       4.59954e+02
  6.500      2.58518e+02       1.41555e+01       1.31311e-01       6.11821e-04       4.53939e+02
  6.600      2.57860e+02       1.38662e+01      -3.15388e-02       6.05333e-04       4.47981e+02
  6.700      2.57173e+02       1.36155e+01      -1.66539e-01       5.98956e-04       4.42081e+02
  6.800      2.56463e+02       1.33993e+01      -2.74237e-01       5.92679e-04       4.36241e+02
  6.900      2.55737e+02       1.32133e+01      -3.55217e-01       5.86490e-04       4.30463e+02
  7.000      2.55001e+02       1.30530e+01      -4.10064e-01       5.80376e-04       4.24751e+02
  7.100      2.54261e+02       1.29142e+01      -4.39364e-01       5.74329e-04       4.19105e+02
  7.200      2.53524e+02       1.27923e+01      -4.43699e-01       5.68336e-04       4.13529e+02
  7.300      2.52796e+02       1.26830e+01      -4.23656e-01       5.62387e-04       4.08025e+02
  7.400      2.52083e+02       1.25820e+01      -3.79818e-01       5.56471e-04       4.02594e+02
  7.500      2.51390e+02       1.24848e+01      -3.12630e-01       5.50579e-04       3.97238e+02
  7.600      2.50720e+02       1.23884e+01      -2.19559e-01       5.44706e-04       3.91952e+02
  7.700      2.50066e+02       1.22904e+01      -9.52239e-02       5.38850e-04       3.86727e+02
  7.800      2.49423e+02       1.21889e+01       6.58678e-02       5.33013e-04       3.81554e+02
  7.900      2.48787e+02       1.20815e+01       2.69208e-01       5.27193e-04       3.76426e+02
  8.000      2.48152e+02       1.19663e+01       5.20290e-01       5.21390e-04       3.71332e+02
  8.100      2.47513e+02       1.18411e+01       8.24610e-01       5.15604e-04       3.66266e+02
  8.200      2.46865e+02       1.17038e+01       1.18765e+00       5.09836e-04       3.61221e+02
  8.300      2.46203e+02       1.15522e+01       1.61492e+00       5.04087e-04       3.56189e+02
  8.400      2.45522e+02       1.13842e+01       2.11190e+00       4.98355e-04       3.51164e+02
  8.500      2.44816e+02       1.11985e+01       2.68255e+00       4.92645e-04       3.46143e+02
  8.600      2.44088e+02       1.10007e+01       3.31815e+00       4.86975e-04       3.41142e+02
  8.700      2.43341e+02       1.07994e+01       4.00376e+00       4.81370e-04       3.36184e+02
  8.800      2.42580e+02       1.06036e+01       4.72446e+00       4.75857e-04       3.31293e+02
  8.900      2.41807e+02       1.04221e+01       5.46527e+00       4.70458e-04       3.26491e+02
  9.000      2.41028e+02       1.02636e+01       6.21124e+00       4.65196e-04       3.21799e+02
  9.100      2.40245e+02       1.01371e+01       6.94740e+00       4.60091e-04       3.17234e+02
  9.200      2.39463e+02       1.00514e+01       7.65880e+00       4.55164e-04       3.12816e+02
  9.300      2.38686e+02       1.00153e+01       8.33048e+00       4.50435e-04       3.08561e+02
  9.400      2.37917e+02       1.00375e+01       8.94748e+00       4.45921e-04       3.04485e+02
  9.500      2.37161e+02       1.01271e+01       9.49484e+00       4.41641e-04       3.00604e+02
  9.600      2.36421e+02       1.02911e+01       9.95964e+00       4.37606e-04       2.96928e+02
  9.700      2.35697e+02       1.05259e+01       1.03422e+01       4.33800e-04       2.93444e+02
  9.800      2.34986e+02       1.08236e+01       1.06484e+01       4.30196e-04       2.90129e+02
  9.900      2.34287e+02       1.11762e+01       1.08837e+01       4.26768e-04       2.86961e+02
 10.000      2.33598e+02       1.15759e+01       1.10539e+01       4.23492e-04       2.83920e+02
 10.100      2.32916e+02       1.20146e+01       1.11647e+01       4.20342e-04       2.80986e+02
 10.200      2.32241e+02       1.24844e+01       1.12219e+01       4.17295e-04       2.78141e+02
 10.300      2.31570e+02       1.29773e+01       1.12311e+01       4.14329e-04       2.75366e+02
 10.400      2.30901e+02       1.34855e+01       1.11980e+01       4.11422e-04       2.72644e+02
 10.500      2.30233e+02       1.40009e+01       1.11284e+01       4.08553e-04       2.69959e+02
 10.600      2.29563e+02       1.45157e+01       1.10279e+01       4.05700e-04       2.67293e+02
 10.700      2.28889e+02       1.50218e+01       1.09023e+01       4.02844e-04       2.64633e+02
 10.800      2.28211e+02       1.55114e+01       1.07572e+01       3.99965e-04       2.61963e+02
 10.900      2.27525e+02       1.59765e+01       1.05984e+01       3.97044e-04       2.59268e+02
 11.000      2.26830e+02       1.64091e+01       1.04316e+01       3.94064e-04       2.56536e+02
 11.100      2.26124e+02       1.68012e+01       1.02625e+01       3.91006e-04       2.53753e+02
 11.200      2.25405e+02       1.71451e+01       1.00968e+01       3.87853e-04       2.50907e+02
 11.300      2.24672e+02       1.74332e+01       9.93958e+00       3.84591e-04       2.47987e+02
 11.400      2.23927e+02       1.76649e+01       9.78974e+00       3.81208e-04       2.44991e+02
 11.500      2.23177e+02       1.78435e+01       9.64226e+00       3.77699e-04       2.41923e+02
 11.600      2.22426e+02       1.79725e+01       9.49210e+00       3.74058e-04       2.38785e+02
 11.700      2.21682e+02       1.80551e+01       9.33421e+00       3.70279e-04       2.35582e+02
 11.800      2.20948e+02       1.80949e+01       9.16353e+00       3.66358e-04       2.32315e+02
 11.900      2.20232e+02       1.80951e+01       8.97501e+00       3.62289e-04       2.28990e+02
 12.000      2.19538e+02       1.80591e+01       8.76361e+00       3.58068e-04       2.25609e+02
 12.100      2.18873e+02       1.79905e+01       8.52427e+00       3.53692e-04       2.22177e+02
 12.200      2.18241e+02       1.78924e+01       8.25194e+00       3.49158e-04       2.18696e+02
 12.300      2.17650e+02       1.77684e+01       7.94157e+00       3.44463e-04       2.15171e+02
 12.400      2.17104e+02       1.76218e+01       7.58811e+00       3.39606e-04       2.11604e+02
 12.500      2.16609e+02       1.74560e+01       7.18651e+00       3.34585e-04       2.08001e+02
 12.600      2.16171e+02       1.72744e+01       6.73171e+00       3.29400e-04       2.04364e+02
 12.700      2.15796e+02       1.70803e+01       6.21867e+00       3.24052e-04       2.00697e+02
 12.800      2.15488e+02       1.68771e+01       5.64358e+00       3.18545e-04       1.97004e+02
 12.900      2.15243e+02       1.66662e+01       5.01150e+00       3.12908e-04       1.93298e+02
 13.000      2.15055e+02       1.64488e+01       4.33134e+00       3.07175e-04       1.89591e+02
 13.100      2.14917e+02       1.62259e+01       3.61206e+00       3.01383e-04       1.85896e+02
 13.200      2.14821e+02       1.59984e+01       2.86259e+00       2.95564e-04       1.82226e+02
 13.300      2.14760e+02       1.57674e+01       2.09186e+00       2.89749e-04       1.78590e+02
 13.400      2.14728e+02       1.55339e+01       1.30882e+00       2.83966e-04       1.75000e+02
 13.500      2.14718e+02       1.52989e+01       5.22395e-01       2.78243e-04       1.71464e+02
 13.600      2.14722e+02       1.50634e+01      -2.58477e-01       2.72603e-04       1.67992e+02
 13.700      2.14733e+02       1.48285e+01      -1.02485e+00       2.67070e-04       1.64591e+02
 13.800      2.14744e+02       1.45951e+01      -1.76779e+00       2.61664e-04       1.61268e+02
 13.900      2.14749e+02       1.43643e+01      -2.47836e+00       2.56405e-04       1.58030e+02
 14.000      2.14740e+02       1.41371e+01      -3.14763e+00       2.51309e-04       1.54882e+02
 14.100      2.14710e+02       1.39145e+01      -3.76666e+00       2.46392e-04       1.51831e+02
 14.200      2.14652e+02       1.36974e+01      -4.32661e+00       2.41669e-04       1.48881e+02
 14.300      2.14564e+02       1.34862e+01      -4.82345e+00       2.37141e-04       1.46031e+02
 14.400      2.14446e+02       1.32802e+01      -5.25957e+00       2.32797e-04       1.43278e+02
 14.500      2.14302e+02       1.30786e+01      -5.63788e+00       2.28624e-04       1.40615e+02
 14.600      2.14135e+02       1.28806e+01      -5.96124e+00       2.24612e-04       1.38039e+02
 14.700      2.13945e+02       1.26856e+01      -6.23254e+00       2.20748e-04       1.35544e+02
 14.800      2.13736e+02       1.24926e+01      -6.45466e+00       2.17023e-04       1.33127e+02
 14.900      2.13511e+02       1.23010e+01      -6.63048e+00       2.13427e-04       1.30783e+02
 15.000      2.13271e+02       1.21100e+01      -6.76288e+00       2.09951e-04       1.28508e+02
 15.100      2.13019e+02       1.19188e+01      -6.85475e+00       2.06587e-04       1.26299e+02
 15.200      2.12757e+02       1.17267e+01      -6.90896e+00       2.03325e-04       1.24153e+02
 15.300      2.12488e+02       1.15329e+01      -6.92839e+00       2.00159e-04       1.22065e+02
 15.400      2.12215e+02       1.13366e+01      -6.91593e+00       1.97080e-04       1.20033e+02
 15.500      2.11939e+02       1.11371e+01      -6.87446e+00       1.94082e-04       1.18053e+02
 15.600      2.11663e+02       1.09336e+01      -6.80686e+00       1.91159e-04       1.16124e+02
 15.700      2.11389e+02       1.07253e+01      -6.71600e+00       1.88303e-04       1.14241e+02
 15.800      2.11121e+02       1.05116e+01      -6.60478e+00       1.85509e-04       1.12403e+02
 15.900      2.10860e+02       1.02915e+01      -6.47607e+00       1.82771e-04       1.10607e+02
 16.000      2.10608e+02       1.00644e+01      -6.33275e+00       1.80083e-04       1.08850e+02
 16.100      2.10368e+02       9.82954e+00      -6.17770e+00       1.77440e-04       1.07131e+02
 16.200      2.10143e+02       9.58607e+00      -6.01381e+00       1.74838e-04       1.05447e+02
 16.300      2.09935e+02       9.33327e+00      -5.84395e+00       1.72272e-04       1.03796e+02
 16.400      2.09746e+02       9.07037e+00      -5.67101e+00       1.69737e-04       1.02177e+02
 16.500      2.09579e+02       8.79660e+00      -5.49787e+00       1.67229e-04       1.00587e+02
 16.600      2.09436e+02       8.51129e+00      -5.32728e+00       1.64744e-04       9.90241e+01
 16.700      2.09317e+02       8.21473e+00      -5.16028e+00       1.62280e-04       9.74882e+01
 16.800      2.09222e+02       7.90797e+00      -4.99668e+00       1.59839e-04       9.59779e+01
 16.900      2.09150e+02       7.59202e+00      -4.83625e+00       1.57419e-04       9.44923e+01
 17.000      2.09100e+02       7.26794e+00      -4.67876e+00       1.55021e-04       9.30307e+01
 17.100      2.09072e+02       6.93677e+00      -4.52401e+00       1.52645e-04       9.15924e+01
 17.200      2.09064e+02       6.59954e+00      -4.37176e+00       1.50291e-04       9.01766e+01
 17.300      2.09076e+02       6.25732e+00      -4.22181e+00       1.47959e-04       8.87826e+01
 17.400      2.09106e+02       5.91112e+00      -4.07391e+00       1.45650e-04       8.74097e+01
 17.500      2.09155e+02       5.56199e+00      -3.92786e+00       1.43363e-04       8.60573e+01
 17.600      2.09222e+02       5.21098e+00      -3.78342e+00       1.41098e-04       8.47249e+01
 17.700      2.09305e+02       4.85913e+00      -3.64039e+00       1.38856e-04       8.34116e+01
 17.800      2.09404e+02       4.50748e+00      -3.49854e+00       1.36637e-04       8.21172e+01
 17.900      2.09517e+02       4.15706e+00      -3.35764e+00       1.34440e-04       8.08408e+01
 18.000      2.09645e+02       3.80892e+00      -3.21747e+00       1.32266e-04       7.95821e+01
 18.100      2.09787e+02       3.46411e+00      -3.07782e+00       1.30115e-04       7.83405e+01
 18.200      2.09941e+02       3.12366e+00      -2.93845e+00       1.27986e-04       7.71155e+01
 18.300      2.10107e+02       2.78862e+00      -2.79916e+00       1.25880e-04       7.59067e+01
 18.400      2.10284e+02       2.46003e+00      -2.65972e+00       1.23797e-04       7.47136e+01
 18.500      2.10472e+02       2.13891e+00      -2.51990e+00       1.21737e-04       7.35358e+01
 18.600      2.10669e+02       1.82633e+00      -2.37948e+00       1.19700e-04       7.23729e+01
 18.700      2.10874e+02       1.52332e+00      -2.23825e+00       1.17686e-04       7.12245e+01
 18.800      2.11088e+02       1.23093e+00      -2.09598e+00       1.15694e-04       7.00901e+01
 18.900      2.11309e+02       9.49981e-01      -1.95253e+00       1.13726e-04       6.89697e+01
 19.000      2.11536e+02       6.80261e-01      -1.80816e+00       1.11781e-04       6.78632e+01
 19.100      2.11768e+02       4.21221e-01      -1.66327e+00       1.09862e-04       6.67711e+01
 19.200      2.12006e+02       1.72310e-01      -1.51825e+00       1.07968e-04       6.56937e+01
 19.300      2.12247e+02      -6.70163e-02      -1.37350e+00       1.06101e-04       6.46312e+01
 19.400      2.12493e+02      -2.97319e-01      -1.22941e+00       1.04261e-04       6.35839e+01
 19.500      2.12740e+02      -5.19143e-01      -1.08637e+00       1.02449e-04       6.25519e+01
 19.600      2.12990e+02      -7.33039e-01      -9.44781e-01       1.00666e-04       6.15355e+01
 19.700      2.13241e+02      -9.39557e-01      -8.05037e-01       9.89127e-05       6.05348e+01
 19.800      2.13493e+02      -1.13925e+00      -6.67532e-01       9.71890e-05       5.95501e+01
 19.900      2.13744e+02      -1.33266e+00      -5.32657e-01       9.54955e-05       5.85813e+01
 20.000      2.13995e+02      -1.52035e+00      -4.00807e-01       9.38327e-05       5.76287e+01
 20.100      2.14243e+02      -1.70286e+00      -2.72378e-01       9.22008e-05       5.66922e+01
 20.200      2.14489e+02      -1.88075e+00      -1.47762e-01       9.06002e-05       5.57720e+01
 20.300      2.14732e+02      -2.05456e+00      -2.73575e-02       8.90310e-05       5.48682e+01
