# Data Source: NASA GEOS5 Near-Real-Time
# Model Time = 2010-09-10 18:00:00
# Location = [  39.7393, -104.9900 ]
# Fields = [ Z(km), T(K), U(m/s), V(m/s), R(g/cm3), P(mbar) ]
# Ground Height = 1.589
  0.000      3.03299e+02       1.06195e+00       1.26981e+00       1.16095e-03       1.01057e+03
  0.100      3.02659e+02       1.04391e+00       1.27748e+00       1.14981e-03       9.98761e+02
  0.200      3.02017e+02       1.02670e+00       1.28497e+00       1.13879e-03       9.87088e+02
  0.300      3.01373e+02       1.01814e+00       1.29058e+00       1.12789e-03       9.75553e+02
  0.400      3.00722e+02       1.02216e+00       1.29518e+00       1.11712e-03       9.64157e+02
  0.500      3.00069e+02       1.02459e+00       1.31157e+00       1.10648e-03       9.52895e+02
  0.600      2.99415e+02       1.00891e+00       1.35319e+00       1.09594e-03       9.41762e+02
  0.700      2.98767e+02       9.84203e-01       1.40808e+00       1.08548e-03       9.30760e+02
  0.800      2.98130e+02       9.72520e-01       1.45158e+00       1.07510e-03       9.19895e+02
  0.900      2.97497e+02       9.81897e-01       1.47655e+00       1.06482e-03       9.09162e+02
  1.000      2.96849e+02       1.00512e+00       1.49483e+00       1.05469e-03       8.98549e+02
  1.100      2.96181e+02       1.02959e+00       1.51805e+00       1.04472e-03       8.88049e+02
  1.200      2.95528e+02       1.03039e+00       1.55463e+00       1.03479e-03       8.77672e+02
  1.300      2.94923e+02       9.85596e-01       1.60952e+00       1.02481e-03       8.67427e+02
  1.400      2.94334e+02       9.18721e-01       1.66110e+00       1.01489e-03       8.57312e+02
  1.500      2.93688e+02       8.77072e-01       1.67392e+00       1.00526e-03       8.47317e+02
  1.600      2.92950e+02       8.88339e-01       1.63338e+00       9.96035e-04       8.37433e+02
  1.700      2.92140e+02       9.43690e-01       1.56345e+00       9.87137e-04       8.27656e+02
  1.800      2.91285e+02       1.03011e+00       1.49074e+00       9.78460e-04       8.17981e+02
  1.900      2.90407e+02       1.13216e+00       1.42781e+00       9.69926e-04       8.08403e+02
  2.000      2.89522e+02       1.23309e+00       1.37945e+00       9.61471e-04       7.98912e+02
  2.100      2.88642e+02       1.32736e+00       1.34806e+00       9.53045e-04       7.89506e+02
  2.200      2.87773e+02       1.44146e+00       1.32945e+00       9.44642e-04       7.80188e+02
  2.300      2.86915e+02       1.60679e+00       1.31830e+00       9.36261e-04       7.70960e+02
  2.400      2.86068e+02       1.83290e+00       1.31040e+00       9.27905e-04       7.61825e+02
  2.500      2.85230e+02       2.10368e+00       1.30286e+00       9.19582e-04       7.52779e+02
  2.600      2.84396e+02       2.40354e+00       1.29360e+00       9.11300e-04       7.43819e+02
  2.700      2.83553e+02       2.73818e+00       1.28840e+00       9.03105e-04       7.34944e+02
  2.800      2.82676e+02       3.12615e+00       1.29779e+00       8.95066e-04       7.26150e+02
  2.900      2.81750e+02       3.58000e+00       1.32992e+00       8.87230e-04       7.17435e+02
  3.000      2.80793e+02       4.07531e+00       1.37845e+00       8.79538e-04       7.08798e+02
  3.100      2.79833e+02       4.57405e+00       1.43168e+00       8.71893e-04       7.00236e+02
  3.200      2.78896e+02       5.04487e+00       1.48119e+00       8.64220e-04       6.91749e+02
  3.300      2.77978e+02       5.48546e+00       1.53286e+00       8.56531e-04       6.83337e+02
  3.400      2.77067e+02       5.90143e+00       1.59642e+00       8.48863e-04       6.75000e+02
  3.500      2.76155e+02       6.29563e+00       1.67726e+00       8.41243e-04       6.66740e+02
  3.600      2.75246e+02       6.65988e+00       1.76328e+00       8.33664e-04       6.58557e+02
  3.700      2.74342e+02       6.98328e+00       1.83798e+00       8.26113e-04       6.50451e+02
  3.800      2.73448e+02       7.25864e+00       1.88905e+00       8.18583e-04       6.42420e+02
  3.900      2.72556e+02       7.49626e+00       1.92374e+00       8.11090e-04       6.34463e+02
  4.000      2.71657e+02       7.71166e+00       1.95514e+00       8.03659e-04       6.26577e+02
  4.100      2.70743e+02       7.92111e+00       1.99554e+00       7.96310e-04       6.18759e+02
  4.200      2.69819e+02       8.14646e+00       2.05135e+00       7.89032e-04       6.11011e+02
  4.300      2.68892e+02       8.41212e+00       2.12637e+00       7.81804e-04       6.03334e+02
  4.400      2.67972e+02       8.74306e+00       2.22481e+00       7.74600e-04       5.95730e+02
  4.500      2.67073e+02       9.17476e+00       2.35800e+00       7.67384e-04       5.88199e+02
  4.600      2.66212e+02       9.75156e+00       2.54337e+00       7.60103e-04       5.80740e+02
  4.700      2.65408e+02       1.05179e+01       2.79849e+00       7.52706e-04       5.73352e+02
  4.800      2.64679e+02       1.14954e+01       3.13290e+00       7.45149e-04       5.66036e+02
  4.900      2.64042e+02       1.26576e+01       3.53940e+00       7.37389e-04       5.58794e+02
  5.000      2.63515e+02       1.39722e+01       4.00869e+00       7.29390e-04       5.51629e+02
  5.100      2.63111e+02       1.54046e+01       4.52948e+00       7.21126e-04       5.44543e+02
  5.200      2.62815e+02       1.69030e+01       5.07428e+00       7.12653e-04       5.37539e+02
  5.300      2.62595e+02       1.84072e+01       5.60773e+00       7.04063e-04       5.30616e+02
  5.400      2.62423e+02       1.98569e+01       6.09447e+00       6.95446e-04       5.23778e+02
  5.500      2.62267e+02       2.12047e+01       6.51165e+00       6.86887e-04       5.17024e+02
  5.600      2.62095e+02       2.24336e+01       6.86603e+00       6.78467e-04       5.10351e+02
  5.700      2.61874e+02       2.35308e+01       7.16863e+00       6.70266e-04       5.03758e+02
  5.800      2.61574e+02       2.44842e+01       7.43048e+00       6.62355e-04       4.97240e+02
  5.900      2.61182e+02       2.52974e+01       7.66224e+00       6.54753e-04       4.90797e+02
  6.000      2.60714e+02       2.59936e+01       7.87416e+00       6.47414e-04       4.84427e+02
  6.100      2.60186e+02       2.65971e+01       8.07645e+00       6.40292e-04       4.78129e+02
  6.200      2.59614e+02       2.71316e+01       8.27921e+00       6.33343e-04       4.71900e+02
  6.300      2.59010e+02       2.76115e+01       8.48926e+00       6.26534e-04       4.65739e+02
  6.400      2.58378e+02       2.80412e+01       8.71022e+00       6.19848e-04       4.59646e+02
  6.500      2.57726e+02       2.84249e+01       8.94554e+00       6.13266e-04       4.53617e+02
  6.600      2.57059e+02       2.87665e+01       9.19855e+00       6.06771e-04       4.47652e+02
  6.700      2.56382e+02       2.90711e+01       9.46772e+00       6.00354e-04       4.41750e+02
  6.800      2.55693e+02       2.93443e+01       9.74512e+00       5.94012e-04       4.35910e+02
  6.900      2.54994e+02       2.95922e+01       1.00224e+01       5.87746e-04       4.30132e+02
  7.000      2.54285e+02       2.98207e+01       1.02911e+01       5.81554e-04       4.24416e+02
  7.100      2.53565e+02       3.00360e+01       1.05447e+01       5.75435e-04       4.18762e+02
  7.200      2.52835e+02       3.02458e+01       1.07818e+01       5.69388e-04       4.13169e+02
  7.300      2.52095e+02       3.04580e+01       1.10019e+01       5.63410e-04       4.07634e+02
  7.400      2.51345e+02       3.06804e+01       1.12046e+01       5.57498e-04       4.02157e+02
  7.500      2.50585e+02       3.09203e+01       1.13896e+01       5.51651e-04       3.96736e+02
  7.600      2.49816e+02       3.11763e+01       1.15588e+01       5.45867e-04       3.91371e+02
  7.700      2.49038e+02       3.14402e+01       1.17155e+01       5.40144e-04       3.86062e+02
  7.800      2.48252e+02       3.17037e+01       1.18634e+01       5.34480e-04       3.80809e+02
  7.900      2.47460e+02       3.19586e+01       1.20060e+01       5.28873e-04       3.75610e+02
  8.000      2.46660e+02       3.21969e+01       1.21462e+01       5.23322e-04       3.70467e+02
  8.100      2.45855e+02       3.24130e+01       1.22845e+01       5.17824e-04       3.65379e+02
  8.200      2.45045e+02       3.26022e+01       1.24202e+01       5.12378e-04       3.60344e+02
  8.300      2.44230e+02       3.27597e+01       1.25529e+01       5.06981e-04       3.55363e+02
  8.400      2.43410e+02       3.28805e+01       1.26819e+01       5.01632e-04       3.50433e+02
  8.500      2.42587e+02       3.29615e+01       1.28069e+01       4.96327e-04       3.45556e+02
  8.600      2.41765e+02       3.30067e+01       1.29281e+01       4.91060e-04       3.40729e+02
  8.700      2.40946e+02       3.30227e+01       1.30460e+01       4.85823e-04       3.35954e+02
  8.800      2.40136e+02       3.30160e+01       1.31611e+01       4.80608e-04       3.31231e+02
  8.900      2.39338e+02       3.29934e+01       1.32740e+01       4.75408e-04       3.26558e+02
  9.000      2.38557e+02       3.29616e+01       1.33852e+01       4.70216e-04       3.21937e+02
  9.100      2.37795e+02       3.29325e+01       1.34964e+01       4.65027e-04       3.17367e+02
  9.200      2.37055e+02       3.29206e+01       1.36099e+01       4.59837e-04       3.12849e+02
  9.300      2.36340e+02       3.29408e+01       1.37280e+01       4.54642e-04       3.08381e+02
  9.400      2.35653e+02       3.30078e+01       1.38530e+01       4.49438e-04       3.03966e+02
  9.500      2.34997e+02       3.31364e+01       1.39872e+01       4.44223e-04       2.99602e+02
  9.600      2.34372e+02       3.33352e+01       1.41318e+01       4.38996e-04       2.95290e+02
  9.700      2.33776e+02       3.35946e+01       1.42837e+01       4.33764e-04       2.91029e+02
  9.800      2.33206e+02       3.39016e+01       1.44396e+01       4.28536e-04       2.86819e+02
  9.900      2.32656e+02       3.42429e+01       1.45959e+01       4.23319e-04       2.82659e+02
 10.000      2.32123e+02       3.46056e+01       1.47490e+01       4.18121e-04       2.78550e+02
 10.100      2.31604e+02       3.49763e+01       1.48955e+01       4.12951e-04       2.74490e+02
 10.200      2.31097e+02       3.53425e+01       1.50324e+01       4.07811e-04       2.70480e+02
 10.300      2.30608e+02       3.56920e+01       1.51589e+01       4.02693e-04       2.66520e+02
 10.400      2.30142e+02       3.60131e+01       1.52745e+01       3.97589e-04       2.62610e+02
 10.500      2.29706e+02       3.62941e+01       1.53786e+01       3.92489e-04       2.58751e+02
 10.600      2.29307e+02       3.65230e+01       1.54706e+01       3.87385e-04       2.54942e+02
 10.700      2.28951e+02       3.66881e+01       1.55501e+01       3.82268e-04       2.51184e+02
 10.800      2.28643e+02       3.67788e+01       1.56167e+01       3.77133e-04       2.47477e+02
 10.900      2.28378e+02       3.67987e+01       1.56733e+01       3.71992e-04       2.43821e+02
 11.000      2.28143e+02       3.67599e+01       1.57246e+01       3.66868e-04       2.40214e+02
 11.100      2.27925e+02       3.66746e+01       1.57755e+01       3.61781e-04       2.36657e+02
 11.200      2.27710e+02       3.65552e+01       1.58307e+01       3.56754e-04       2.33149e+02
 11.300      2.27486e+02       3.64139e+01       1.58950e+01       3.51805e-04       2.29689e+02
 11.400      2.27240e+02       3.62630e+01       1.59732e+01       3.46953e-04       2.26276e+02
 11.500      2.26960e+02       3.61142e+01       1.60697e+01       3.42214e-04       2.22910e+02
 11.600      2.26644e+02       3.59718e+01       1.61845e+01       3.37588e-04       2.19590e+02
 11.700      2.26298e+02       3.58348e+01       1.63140e+01       3.33061e-04       2.16315e+02
 11.800      2.25930e+02       3.57020e+01       1.64549e+01       3.28622e-04       2.13084e+02
 11.900      2.25545e+02       3.55721e+01       1.66035e+01       3.24259e-04       2.09897e+02
 12.000      2.25151e+02       3.54439e+01       1.67565e+01       3.19961e-04       2.06753e+02
 12.100      2.24754e+02       3.53163e+01       1.69102e+01       3.15717e-04       2.03651e+02
 12.200      2.24360e+02       3.51881e+01       1.70612e+01       3.11518e-04       2.00591e+02
 12.300      2.23976e+02       3.50583e+01       1.72062e+01       3.07354e-04       1.97571e+02
 12.400      2.23599e+02       3.49286e+01       1.73431e+01       3.03228e-04       1.94591e+02
 12.500      2.23225e+02       3.48015e+01       1.74705e+01       2.99146e-04       1.91650e+02
 12.600      2.22849e+02       3.46797e+01       1.75871e+01       2.95115e-04       1.88749e+02
 12.700      2.22465e+02       3.45659e+01       1.76914e+01       2.91140e-04       1.85886e+02
 12.800      2.22070e+02       3.44626e+01       1.77819e+01       2.87226e-04       1.83061e+02
 12.900      2.21657e+02       3.43726e+01       1.78573e+01       2.83380e-04       1.80273e+02
 13.000      2.21221e+02       3.42983e+01       1.79161e+01       2.79605e-04       1.77523e+02
 13.100      2.20759e+02       3.42426e+01       1.79569e+01       2.75907e-04       1.74809e+02
 13.200      2.20268e+02       3.42060e+01       1.79779e+01       2.72287e-04       1.72131e+02
 13.300      2.19752e+02       3.41829e+01       1.79755e+01       2.68736e-04       1.69489e+02
 13.400      2.19219e+02       3.41662e+01       1.79462e+01       2.65246e-04       1.66882e+02
 13.500      2.18677e+02       3.41489e+01       1.78862e+01       2.61806e-04       1.64311e+02
 13.600      2.18132e+02       3.41242e+01       1.77917e+01       2.58408e-04       1.61774e+02
 13.700      2.17592e+02       3.40849e+01       1.76592e+01       2.55043e-04       1.59271e+02
 13.800      2.17063e+02       3.40241e+01       1.74848e+01       2.51702e-04       1.56803e+02
 13.900      2.16553e+02       3.39348e+01       1.72650e+01       2.48378e-04       1.54368e+02
 14.000      2.16069e+02       3.38099e+01       1.69959e+01       2.45062e-04       1.51967e+02
 14.100      2.15618e+02       3.36426e+01       1.66739e+01       2.41748e-04       1.49599e+02
 14.200      2.15204e+02       3.34279e+01       1.62980e+01       2.38432e-04       1.47264e+02
 14.300      2.14825e+02       3.31656e+01       1.58738e+01       2.35116e-04       1.44961e+02
 14.400      2.14480e+02       3.28566e+01       1.54081e+01       2.31805e-04       1.42689e+02
 14.500      2.14163e+02       3.25014e+01       1.49073e+01       2.28501e-04       1.40448e+02
 14.600      2.13874e+02       3.21007e+01       1.43781e+01       2.25208e-04       1.38237e+02
 14.700      2.13607e+02       3.16553e+01       1.38272e+01       2.21930e-04       1.36055e+02
 14.800      2.13362e+02       3.11658e+01       1.32612e+01       2.18670e-04       1.33903e+02
 14.900      2.13134e+02       3.06328e+01       1.26866e+01       2.15432e-04       1.31779e+02
 15.000      2.12921e+02       3.00571e+01       1.21102e+01       2.12217e-04       1.29682e+02
 15.100      2.12720e+02       2.94394e+01       1.15385e+01       2.09029e-04       1.27613e+02
 15.200      2.12528e+02       2.87802e+01       1.09782e+01       2.05870e-04       1.25571e+02
 15.300      2.12342e+02       2.80807e+01       1.04355e+01       2.02743e-04       1.23556e+02
 15.400      2.12161e+02       2.73442e+01       9.91266e+00       1.99650e-04       1.21567e+02
 15.500      2.11986e+02       2.65759e+01       9.40988e+00       1.96592e-04       1.19607e+02
 15.600      2.11818e+02       2.57807e+01       8.92723e+00       1.93570e-04       1.17675e+02
 15.700      2.11656e+02       2.49636e+01       8.46482e+00       1.90587e-04       1.15772e+02
 15.800      2.11501e+02       2.41296e+01       8.02274e+00       1.87642e-04       1.13900e+02
 15.900      2.11354e+02       2.32838e+01       7.60109e+00       1.84738e-04       1.12059e+02
 16.000      2.11215e+02       2.24311e+01       7.19998e+00       1.81874e-04       1.10250e+02
 16.100      2.11084e+02       2.15766e+01       6.81949e+00       1.79052e-04       1.08472e+02
 16.200      2.10962e+02       2.07253e+01       6.45974e+00       1.76274e-04       1.06727e+02
 16.300      2.10850e+02       1.98822e+01       6.12082e+00       1.73538e-04       1.05015e+02
 16.400      2.10747e+02       1.90522e+01       5.80283e+00       1.70847e-04       1.03336e+02
 16.500      2.10654e+02       1.82405e+01       5.50587e+00       1.68201e-04       1.01691e+02
 16.600      2.10572e+02       1.74520e+01       5.23004e+00       1.65600e-04       1.00079e+02
 16.700      2.10502e+02       1.66909e+01       4.97531e+00       1.63044e-04       9.85015e+01
 16.800      2.10442e+02       1.59577e+01       4.74111e+00       1.60533e-04       9.69564e+01
 16.900      2.10393e+02       1.52515e+01       4.52669e+00       1.58063e-04       9.54424e+01
 17.000      2.10354e+02       1.45716e+01       4.33129e+00       1.55633e-04       9.39580e+01
 17.100      2.10327e+02       1.39174e+01       4.15417e+00       1.53241e-04       9.25018e+01
 17.200      2.10309e+02       1.32881e+01       3.99458e+00       1.50885e-04       9.10726e+01
 17.300      2.10303e+02       1.26830e+01       3.85178e+00       1.48565e-04       8.96691e+01
 17.400      2.10306e+02       1.21013e+01       3.72501e+00       1.46277e-04       8.82900e+01
 17.500      2.10320e+02       1.15424e+01       3.61353e+00       1.44022e-04       8.69343e+01
 17.600      2.10344e+02       1.10055e+01       3.51658e+00       1.41797e-04       8.56008e+01
 17.700      2.10378e+02       1.04899e+01       3.43342e+00       1.39600e-04       8.42885e+01
 17.800      2.10422e+02       9.99496e+00       3.36331e+00       1.37432e-04       8.29964e+01
 17.900      2.10476e+02       9.51982e+00       3.30549e+00       1.35289e-04       8.17235e+01
 18.000      2.10539e+02       9.06382e+00       3.25922e+00       1.33172e-04       8.04689e+01
 18.100      2.10612e+02       8.62623e+00       3.22374e+00       1.31080e-04       7.92318e+01
 18.200      2.10694e+02       8.20634e+00       3.19831e+00       1.29010e-04       7.80114e+01
 18.300      2.10785e+02       7.80343e+00       3.18219e+00       1.26963e-04       7.68068e+01
 18.400      2.10886e+02       7.41677e+00       3.17462e+00       1.24937e-04       7.56172e+01
 18.500      2.10996e+02       7.04563e+00       3.17485e+00       1.22931e-04       7.44421e+01
 18.600      2.11115e+02       6.68930e+00       3.18214e+00       1.20945e-04       7.32807e+01
 18.700      2.11243e+02       6.34706e+00       3.19574e+00       1.18978e-04       7.21323e+01
 18.800      2.11379e+02       6.01819e+00       3.21490e+00       1.17029e-04       7.09964e+01
 18.900      2.11525e+02       5.70195e+00       3.23887e+00       1.15097e-04       6.98725e+01
 19.000      2.11678e+02       5.39761e+00       3.26690e+00       1.13182e-04       6.87601e+01
 19.100      2.11840e+02       5.10433e+00       3.29823e+00       1.11286e-04       6.76599e+01
 19.200      2.12008e+02       4.82125e+00       3.33210e+00       1.09411e-04       6.65722e+01
 19.300      2.12182e+02       4.54754e+00       3.36772e+00       1.07556e-04       6.54977e+01
 19.400      2.12362e+02       4.28233e+00       3.40435e+00       1.05724e-04       6.44368e+01
 19.500      2.12546e+02       4.02479e+00       3.44121e+00       1.03917e-04       6.33899e+01
 19.600      2.12734e+02       3.77406e+00       3.47754e+00       1.02134e-04       6.23575e+01
 19.700      2.12925e+02       3.52930e+00       3.51258e+00       1.00377e-04       6.13398e+01
 19.800      2.13119e+02       3.28966e+00       3.54555e+00       9.86467e-05       6.03373e+01
 19.900      2.13313e+02       3.05428e+00       3.57569e+00       9.69442e-05       5.93502e+01
 20.000      2.13509e+02       2.82232e+00       3.60224e+00       9.52703e-05       5.83788e+01
 20.100      2.13704e+02       2.59293e+00       3.62444e+00       9.36254e-05       5.74233e+01
 20.200      2.13898e+02       2.36526e+00       3.64151e+00       9.20102e-05       5.64839e+01
 20.300      2.14091e+02       2.13847e+00       3.65268e+00       9.04252e-05       5.55609e+01
