# Data Source: NASA GEOS5 Near-Real-Time
# Model Time = 2010-10-16 18:00:00
# Location = [  39.7393, -104.9900 ]
# Fields = [ Z(km), T(K), U(m/s), V(m/s), R(g/cm3), P(mbar) ]
# Ground Height = 1.589
  0.000      2.98642e+02      -7.21582e-01       4.36365e-01       1.19319e-03       1.02269e+03
  0.100      2.98001e+02      -7.22055e-01       4.35739e-01       1.18177e-03       1.01072e+03
  0.200      2.97369e+02      -7.38169e-01       4.30264e-01       1.17043e-03       9.98905e+02
  0.300      2.96736e+02      -7.52676e-01       4.25288e-01       1.15922e-03       9.87227e+02
  0.400      2.96092e+02      -7.48328e-01       4.26157e-01       1.14814e-03       9.75674e+02
  0.500      2.95433e+02      -7.15116e-01       4.37552e-01       1.13722e-03       9.64237e+02
  0.600      2.94787e+02      -6.77571e-01       4.60973e-01       1.12633e-03       9.52920e+02
  0.700      2.94185e+02      -6.67202e-01       4.95353e-01       1.11538e-03       9.41729e+02
  0.800      2.93586e+02      -6.85741e-01       5.25069e-01       1.10453e-03       9.30664e+02
  0.900      2.92915e+02      -7.18922e-01       5.28128e-01       1.09404e-03       9.19720e+02
  1.000      2.92180e+02      -7.46258e-01       5.15400e-01       1.08388e-03       9.08893e+02
  1.100      2.91478e+02      -7.40970e-01       5.32024e-01       1.07368e-03       8.98180e+02
  1.200      2.90861e+02      -6.89161e-01       5.99158e-01       1.06326e-03       8.87580e+02
  1.300      2.90258e+02      -6.08882e-01       6.75919e-01       1.05289e-03       8.77098e+02
  1.400      2.89595e+02      -5.23992e-01       7.20013e-01       1.04283e-03       8.66738e+02
  1.500      2.88881e+02      -4.66206e-01       7.47121e-01       1.03306e-03       8.56497e+02
  1.600      2.88163e+02      -4.69823e-01       7.98167e-01       1.02338e-03       8.46367e+02
  1.700      2.87446e+02      -5.21515e-01       8.71479e-01       1.01378e-03       8.36341e+02
  1.800      2.86672e+02      -5.39141e-01       9.03680e-01       1.00446e-03       8.26415e+02
  1.900      2.85793e+02      -4.54136e-01       8.44305e-01       9.95562e-04       8.16586e+02
  2.000      2.84856e+02      -3.15030e-01       7.52477e-01       9.86930e-04       8.06851e+02
  2.100      2.83939e+02      -2.14453e-01       7.28599e-01       9.78277e-04       7.97204e+02
  2.200      2.83131e+02      -1.95942e-01       8.28210e-01       9.69309e-04       7.87646e+02
  2.300      2.82526e+02      -2.17571e-01       1.02875e+00       9.59718e-04       7.78188e+02
  2.400      2.82208e+02      -2.30115e-01       1.29772e+00       9.49255e-04       7.68838e+02
  2.500      2.82088e+02      -1.99229e-01       1.57750e+00       9.38249e-04       7.59599e+02
  2.600      2.81963e+02      -1.00328e-01       1.79397e+00       9.27383e-04       7.50469e+02
  2.700      2.81664e+02       8.31989e-02       1.89552e+00       9.17208e-04       7.41447e+02
  2.800      2.81182e+02       3.31512e-01       1.93708e+00       9.07720e-04       7.32524e+02
  2.900      2.80559e+02       6.14144e-01       2.00459e+00       8.98768e-04       7.23691e+02
  3.000      2.79838e+02       9.05573e-01       2.16272e+00       8.90188e-04       7.14941e+02
  3.100      2.79081e+02       1.19304e+00       2.42110e+00       8.81783e-04       7.06275e+02
  3.200      2.78352e+02       1.46585e+00       2.78056e+00       8.73354e-04       6.97696e+02
  3.300      2.77680e+02       1.71575e+00       3.23658e+00       8.64809e-04       6.89203e+02
  3.400      2.77037e+02       1.93899e+00       3.77475e+00       8.56243e-04       6.80795e+02
  3.500      2.76386e+02       2.13247e+00       4.37945e+00       8.47764e-04       6.72471e+02
  3.600      2.75704e+02       2.30282e+00       5.02300e+00       8.39444e-04       6.64228e+02
  3.700      2.74988e+02       2.47301e+00       5.65761e+00       8.31287e-04       6.56064e+02
  3.800      2.74236e+02       2.66747e+00       6.23370e+00       8.23294e-04       6.47979e+02
  3.900      2.73454e+02       2.90292e+00       6.71674e+00       8.15444e-04       6.39970e+02
  4.000      2.72660e+02       3.18107e+00       7.10144e+00       8.07682e-04       6.32040e+02
  4.100      2.71877e+02       3.50191e+00       7.38585e+00       7.99948e-04       6.24188e+02
  4.200      2.71116e+02       3.86431e+00       7.57099e+00       7.92202e-04       6.16414e+02
  4.300      2.70374e+02       4.26386e+00       7.66669e+00       7.84456e-04       6.08716e+02
  4.400      2.69642e+02       4.69554e+00       7.68433e+00       7.76731e-04       6.01091e+02
  4.500      2.68914e+02       5.15318e+00       7.63439e+00       7.69046e-04       5.93536e+02
  4.600      2.68189e+02       5.62339e+00       7.52153e+00       7.61403e-04       5.86054e+02
  4.700      2.67472e+02       6.08999e+00       7.34820e+00       7.53795e-04       5.78646e+02
  4.800      2.66764e+02       6.53697e+00       7.11703e+00       7.46218e-04       5.71314e+02
  4.900      2.66071e+02       6.95095e+00       6.83512e+00       7.38662e-04       5.64059e+02
  5.000      2.65396e+02       7.32122e+00       6.51401e+00       7.31114e-04       5.56879e+02
  5.100      2.64743e+02       7.63718e+00       6.16542e+00       7.23562e-04       5.49772e+02
  5.200      2.64117e+02       7.89378e+00       5.79959e+00       7.15996e-04       5.42736e+02
  5.300      2.63517e+02       8.10616e+00       5.42144e+00       7.08421e-04       5.35773e+02
  5.400      2.62940e+02       8.29401e+00       5.03468e+00       7.00845e-04       5.28884e+02
  5.500      2.62386e+02       8.47688e+00       4.64304e+00       6.93276e-04       5.22070e+02
  5.600      2.61847e+02       8.66909e+00       4.25158e+00       6.85736e-04       5.15331e+02
  5.700      2.61307e+02       8.87870e+00       3.86683e+00       6.78263e-04       5.08664e+02
  5.800      2.60752e+02       9.11339e+00       3.49547e+00       6.70894e-04       5.02069e+02
  5.900      2.60166e+02       9.37959e+00       3.14417e+00       6.63664e-04       4.95543e+02
  6.000      2.59545e+02       9.66980e+00       2.81980e+00       6.56585e-04       4.89086e+02
  6.100      2.58885e+02       9.96794e+00       2.52938e+00       6.49658e-04       4.82696e+02
  6.200      2.58188e+02       1.02578e+01       2.27990e+00       6.42882e-04       4.76374e+02
  6.300      2.57451e+02       1.05236e+01       2.07739e+00       6.36254e-04       4.70119e+02
  6.400      2.56682e+02       1.07529e+01       1.92011e+00       6.29758e-04       4.63929e+02
  6.500      2.55889e+02       1.09345e+01       1.80269e+00       6.23369e-04       4.57803e+02
  6.600      2.55080e+02       1.10574e+01       1.71972e+00       6.17063e-04       4.51740e+02
  6.700      2.54264e+02       1.11117e+01       1.66546e+00       6.10819e-04       4.45738e+02
  6.800      2.53443e+02       1.10972e+01       1.63091e+00       6.04629e-04       4.39796e+02
  6.900      2.52617e+02       1.10192e+01       1.60519e+00       5.98494e-04       4.33915e+02
  7.000      2.51786e+02       1.08835e+01       1.57741e+00       5.92414e-04       4.28093e+02
  7.100      2.50949e+02       1.06955e+01       1.53694e+00       5.86389e-04       4.22331e+02
  7.200      2.50107e+02       1.04649e+01       1.47995e+00       5.80416e-04       4.16627e+02
  7.300      2.49266e+02       1.02057e+01       1.41016e+00       5.74486e-04       4.10983e+02
  7.400      2.48427e+02       9.93201e+00       1.33163e+00       5.68591e-04       4.05396e+02
  7.500      2.47594e+02       9.65796e+00       1.24845e+00       5.62722e-04       3.99868e+02
  7.600      2.46771e+02       9.39566e+00       1.16474e+00       5.56875e-04       3.94397e+02
  7.700      2.45955e+02       9.14965e+00       1.08477e+00       5.51053e-04       3.88983e+02
  7.800      2.45144e+02       8.92266e+00       1.01286e+00       5.45261e-04       3.83626e+02
  7.900      2.44336e+02       8.71746e+00       9.53313e-01       5.39505e-04       3.78325e+02
  8.000      2.43528e+02       8.53673e+00       9.10361e-01       5.33791e-04       3.73081e+02
  8.100      2.42719e+02       8.38077e+00       8.84325e-01       5.28122e-04       3.67892e+02
  8.200      2.41908e+02       8.24646e+00       8.69994e-01       5.22499e-04       3.62758e+02
  8.300      2.41094e+02       8.13042e+00       8.61737e-01       5.16923e-04       3.57680e+02
  8.400      2.40277e+02       8.02927e+00       8.53921e-01       5.11396e-04       3.52655e+02
  8.500      2.39455e+02       7.93967e+00       8.40959e-01       5.05918e-04       3.47685e+02
  8.600      2.38628e+02       7.85923e+00       8.18464e-01       5.00490e-04       3.42768e+02
  8.700      2.37797e+02       7.78665e+00       7.83354e-01       4.95113e-04       3.37904e+02
  8.800      2.36960e+02       7.72065e+00       7.32613e-01       4.89787e-04       3.33092e+02
  8.900      2.36116e+02       7.65996e+00       6.63226e-01       4.84513e-04       3.28331e+02
  9.000      2.35265e+02       7.60334e+00       5.72194e-01       4.79290e-04       3.23622e+02
  9.100      2.34409e+02       7.55168e+00       4.58074e-01       4.74118e-04       3.18964e+02
  9.200      2.33547e+02       7.50953e+00       3.22098e-01       4.68992e-04       3.14356e+02
  9.300      2.32683e+02       7.48181e+00       1.65759e-01       4.63908e-04       3.09798e+02
  9.400      2.31819e+02       7.47344e+00      -9.44310e-03       4.58861e-04       3.05290e+02
  9.500      2.30956e+02       7.48933e+00      -2.02017e-01       4.53848e-04       3.00831e+02
  9.600      2.30097e+02       7.53304e+00      -4.09999e-01       4.48865e-04       2.96421e+02
  9.700      2.29244e+02       7.59852e+00      -6.28134e-01       4.43907e-04       2.92060e+02
  9.800      2.28397e+02       7.67556e+00      -8.49742e-01       4.38973e-04       2.87747e+02
  9.900      2.27560e+02       7.75392e+00      -1.06813e+00       4.34060e-04       2.83483e+02
 10.000      2.26733e+02       7.82337e+00      -1.27662e+00       4.29164e-04       2.79267e+02
 10.100      2.25918e+02       7.87367e+00      -1.46852e+00       4.24283e-04       2.75099e+02
 10.200      2.25117e+02       7.89787e+00      -1.63843e+00       4.19416e-04       2.70978e+02
 10.300      2.24325e+02       7.90305e+00      -1.78657e+00       4.14569e-04       2.66905e+02
 10.400      2.23540e+02       7.90007e+00      -1.91463e+00       4.09749e-04       2.62879e+02
 10.500      2.22758e+02       7.89981e+00      -2.02432e+00       4.04963e-04       2.58899e+02
 10.600      2.21974e+02       7.91312e+00      -2.11733e+00       4.00220e-04       2.54966e+02
 10.700      2.21185e+02       7.95087e+00      -2.19536e+00       3.95525e-04       2.51080e+02
 10.800      2.20388e+02       8.02377e+00      -2.26013e+00       3.90884e-04       2.47239e+02
 10.900      2.19585e+02       8.14104e+00      -2.31337e+00       3.86290e-04       2.43444e+02
 11.000      2.18786e+02       8.31108e+00      -2.35685e+00       3.81729e-04       2.39694e+02
 11.100      2.17997e+02       8.54227e+00      -2.39234e+00       3.77188e-04       2.35989e+02
 11.200      2.17227e+02       8.84300e+00      -2.42162e+00       3.72655e-04       2.32328e+02
 11.300      2.16482e+02       9.22166e+00      -2.44644e+00       3.68116e-04       2.28712e+02
 11.400      2.15772e+02       9.68663e+00      -2.46857e+00       3.63559e-04       2.25139e+02
 11.500      2.15102e+02       1.02413e+01      -2.48863e+00       3.58975e-04       2.21611e+02
 11.600      2.14478e+02       1.08663e+01      -2.50203e+00       3.54359e-04       2.18127e+02
 11.700      2.13906e+02       1.15362e+01      -2.50269e+00       3.49706e-04       2.14688e+02
 11.800      2.13388e+02       1.22253e+01      -2.48455e+00       3.45014e-04       2.11295e+02
 11.900      2.12931e+02       1.29080e+01      -2.44156e+00       3.40280e-04       2.07949e+02
 12.000      2.12538e+02       1.35586e+01      -2.36765e+00       3.35501e-04       2.04650e+02
 12.100      2.12214e+02       1.41516e+01      -2.25676e+00       3.30675e-04       2.01399e+02
 12.200      2.11963e+02       1.46624e+01      -2.10325e+00       3.25801e-04       1.98196e+02
 12.300      2.11780e+02       1.50833e+01      -1.90877e+00       3.20893e-04       1.95041e+02
 12.400      2.11650e+02       1.54212e+01      -1.68111e+00       3.15974e-04       1.91934e+02
 12.500      2.11561e+02       1.56834e+01      -1.42825e+00       3.11069e-04       1.88875e+02
 12.600      2.11496e+02       1.58770e+01      -1.15819e+00       3.06199e-04       1.85861e+02
 12.700      2.11443e+02       1.60094e+01      -8.78921e-01       3.01386e-04       1.82894e+02
 12.800      2.11388e+02       1.60877e+01      -5.98414e-01       2.96649e-04       1.79972e+02
 12.900      2.11316e+02       1.61193e+01      -3.24664e-01       2.92007e-04       1.77095e+02
 13.000      2.11213e+02       1.61115e+01      -6.56214e-02       2.87477e-04       1.74263e+02
 13.100      2.11072e+02       1.60723e+01       1.74357e-01       2.83065e-04       1.71475e+02
 13.200      2.10899e+02       1.60118e+01       3.97684e-01       2.78763e-04       1.68729e+02
 13.300      2.10700e+02       1.59401e+01       6.07523e-01       2.74557e-04       1.66027e+02
 13.400      2.10481e+02       1.58673e+01       8.07033e-01       2.70439e-04       1.63367e+02
 13.500      2.10250e+02       1.58035e+01       9.99379e-01       2.66397e-04       1.60749e+02
 13.600      2.10013e+02       1.57590e+01       1.18772e+00       2.62422e-04       1.58171e+02
 13.700      2.09777e+02       1.57438e+01       1.37522e+00       2.58504e-04       1.55635e+02
 13.800      2.09549e+02       1.57681e+01       1.56503e+00       2.54634e-04       1.53138e+02
 13.900      2.09334e+02       1.58419e+01       1.76033e+00       2.50805e-04       1.50681e+02
 14.000      2.09141e+02       1.59742e+01       1.96372e+00       2.47009e-04       1.48263e+02
 14.100      2.08970e+02       1.61601e+01       2.17257e+00       2.43242e-04       1.45883e+02
 14.200      2.08821e+02       1.63874e+01       2.38129e+00       2.39506e-04       1.43539e+02
 14.300      2.08692e+02       1.66438e+01       2.58430e+00       2.35799e-04       1.41231e+02
 14.400      2.08585e+02       1.69171e+01       2.77596e+00       2.32123e-04       1.38958e+02
 14.500      2.08496e+02       1.71950e+01       2.95069e+00       2.28476e-04       1.36717e+02
 14.600      2.08427e+02       1.74650e+01       3.10287e+00       2.24860e-04       1.34508e+02
 14.700      2.08377e+02       1.77150e+01       3.22688e+00       2.21273e-04       1.32330e+02
 14.800      2.08344e+02       1.79327e+01       3.31713e+00       2.17716e-04       1.30183e+02
 14.900      2.08328e+02       1.81056e+01       3.36801e+00       2.14189e-04       1.28064e+02
 15.000      2.08328e+02       1.82217e+01       3.37390e+00       2.10693e-04       1.25974e+02
 15.100      2.08344e+02       1.82689e+01       3.32948e+00       2.07226e-04       1.23911e+02
 15.200      2.08375e+02       1.82451e+01       3.23509e+00       2.03792e-04       1.21875e+02
 15.300      2.08419e+02       1.81570e+01       3.09629e+00       2.00395e-04       1.19869e+02
 15.400      2.08474e+02       1.80113e+01       2.91886e+00       1.97038e-04       1.17892e+02
 15.500      2.08540e+02       1.78152e+01       2.70854e+00       1.93725e-04       1.15946e+02
 15.600      2.08614e+02       1.75755e+01       2.47111e+00       1.90460e-04       1.14033e+02
 15.700      2.08695e+02       1.72992e+01       2.21235e+00       1.87246e-04       1.12152e+02
 15.800      2.08782e+02       1.69933e+01       1.93800e+00       1.84085e-04       1.10305e+02
 15.900      2.08874e+02       1.66647e+01       1.65384e+00       1.80980e-04       1.08492e+02
 16.000      2.08968e+02       1.63203e+01       1.36563e+00       1.77934e-04       1.06714e+02
 16.100      2.09064e+02       1.59671e+01       1.07915e+00       1.74948e-04       1.04971e+02
 16.200      2.09159e+02       1.56122e+01       8.00148e-01       1.72025e-04       1.03264e+02
 16.300      2.09253e+02       1.52623e+01       5.34405e-01       1.69167e-04       1.01594e+02
 16.400      2.09343e+02       1.49245e+01       2.87675e-01       1.66375e-04       9.99608e+01
 16.500      2.09430e+02       1.46043e+01       6.44785e-02       1.63650e-04       9.83640e+01
 16.600      2.09512e+02       1.43019e+01      -1.35318e-01       1.60988e-04       9.68024e+01
 16.700      2.09591e+02       1.40162e+01      -3.12929e-01       1.58388e-04       9.52742e+01
 16.800      2.09666e+02       1.37463e+01      -4.69565e-01       1.55844e-04       9.37779e+01
 16.900      2.09738e+02       1.34910e+01      -6.06447e-01       1.53355e-04       9.23117e+01
 17.000      2.09806e+02       1.32494e+01      -7.24787e-01       1.50918e-04       9.08743e+01
 17.100      2.09873e+02       1.30205e+01      -8.25798e-01       1.48529e-04       8.94641e+01
 17.200      2.09937e+02       1.28031e+01      -9.10695e-01       1.46186e-04       8.80797e+01
 17.300      2.09999e+02       1.25963e+01      -9.80691e-01       1.43886e-04       8.67199e+01
 17.400      2.10060e+02       1.23990e+01      -1.03700e+00       1.41628e-04       8.53835e+01
 17.500      2.10119e+02       1.22101e+01      -1.08085e+00       1.39408e-04       8.40690e+01
 17.600      2.10178e+02       1.20288e+01      -1.11343e+00       1.37225e-04       8.27756e+01
 17.700      2.10236e+02       1.18538e+01      -1.13597e+00       1.35077e-04       8.15020e+01
 17.800      2.10293e+02       1.16842e+01      -1.14969e+00       1.32960e-04       8.02472e+01
 17.900      2.10351e+02       1.15190e+01      -1.15579e+00       1.30875e-04       7.90102e+01
 18.000      2.10409e+02       1.13571e+01      -1.15549e+00       1.28819e-04       7.77901e+01
 18.100      2.10468e+02       1.11974e+01      -1.15001e+00       1.26789e-04       7.65861e+01
 18.200      2.10528e+02       1.10390e+01      -1.14055e+00       1.24786e-04       7.53972e+01
 18.300      2.10589e+02       1.08809e+01      -1.12834e+00       1.22806e-04       7.42226e+01
 18.400      2.10652e+02       1.07219e+01      -1.11459e+00       1.20849e-04       7.30617e+01
 18.500      2.10717e+02       1.05610e+01      -1.10051e+00       1.18913e-04       7.19136e+01
 18.600      2.10784e+02       1.03972e+01      -1.08732e+00       1.16998e-04       7.07776e+01
 18.700      2.10854e+02       1.02295e+01      -1.07622e+00       1.15101e-04       6.96532e+01
 18.800      2.10926e+02       1.00574e+01      -1.06790e+00       1.13222e-04       6.85402e+01
 18.900      2.11002e+02       9.88138e+00      -1.06217e+00       1.11364e-04       6.74391e+01
 19.000      2.11080e+02       9.70185e+00      -1.05877e+00       1.09525e-04       6.63505e+01
 19.100      2.11161e+02       9.51934e+00      -1.05744e+00       1.07708e-04       6.52748e+01
 19.200      2.11245e+02       9.33438e+00      -1.05790e+00       1.05914e-04       6.42126e+01
 19.300      2.11331e+02       9.14746e+00      -1.05991e+00       1.04142e-04       6.31644e+01
 19.400      2.11420e+02       8.95910e+00      -1.06318e+00       1.02394e-04       6.21304e+01
 19.500      2.11512e+02       8.76979e+00      -1.06746e+00       1.00671e-04       6.11111e+01
 19.600      2.11606e+02       8.58005e+00      -1.07248e+00       9.89727e-05       6.01069e+01
 19.700      2.11702e+02       8.39038e+00      -1.07798e+00       9.73001e-05       5.91180e+01
 19.800      2.11800e+02       8.20129e+00      -1.08370e+00       9.56537e-05       5.81447e+01
 19.900      2.11901e+02       8.01329e+00      -1.08937e+00       9.40338e-05       5.71873e+01
 20.000      2.12004e+02       7.82687e+00      -1.09472e+00       9.24409e-05       5.62459e+01
 20.100      2.12110e+02       7.64255e+00      -1.09949e+00       9.08754e-05       5.53209e+01
 20.200      2.12217e+02       7.46083e+00      -1.10341e+00       8.93375e-05       5.44123e+01
 20.300      2.12327e+02       7.28223e+00      -1.10623e+00       8.78276e-05       5.35202e+01
