# Data Source: NASA MERRA (version 2)
# Model Calculated 2019-07-18 22:09:19
# Model Time = 2011-09-07 18:00:00
# Location = [  39.1026,  -84.5123 ]
# Fields = [ Z(km), T(K), U(m/s), V(m/s), R(g/cm3), P(mbar) ]
# Ground Height = 0.165
  0.000      2.90616e+02       4.78705e-02      -3.68506e+00       1.21602e-03       1.01425e+03
  0.100      2.89938e+02       1.49456e-01      -3.90718e+00       1.20463e-03       1.00240e+03
  0.200      2.89281e+02       2.59750e-01      -4.08749e+00       1.19327e-03       9.90697e+02
  0.300      2.88543e+02       3.36104e-01      -4.43077e+00       1.18234e-03       9.79118e+02
  0.400      2.87631e+02       3.36247e-01      -5.11504e+00       1.17220e-03       9.67649e+02
  0.500      2.86620e+02       2.22703e-01      -5.97760e+00       1.16251e-03       9.56277e+02
  0.600      2.85696e+02      -3.72531e-02      -6.62820e+00       1.15251e-03       9.44998e+02
  0.700      2.84960e+02      -4.32406e-01      -6.89064e+00       1.14181e-03       9.33813e+02
  0.800      2.84416e+02      -9.00830e-01      -6.84156e+00       1.13043e-03       9.22738e+02
  0.900      2.84039e+02      -1.38048e+00      -6.57275e+00       1.11849e-03       9.11781e+02
  1.000      2.83757e+02      -1.81528e+00      -6.17829e+00       1.10629e-03       9.00942e+02
  1.100      2.83503e+02      -2.16067e+00      -5.74361e+00       1.09410e-03       8.90219e+02
  1.200      2.83258e+02      -2.42802e+00      -5.30752e+00       1.08200e-03       8.79612e+02
  1.300      2.83022e+02      -2.64685e+00      -4.89369e+00       1.06999e-03       8.69123e+02
  1.400      2.82794e+02      -2.84667e+00      -4.52581e+00       1.05807e-03       8.58752e+02
  1.500      2.82575e+02      -3.05697e+00      -4.22751e+00       1.04625e-03       8.48498e+02
  1.600      2.82360e+02      -3.29342e+00      -4.01035e+00       1.03454e-03       8.38363e+02
  1.700      2.82140e+02      -3.53589e+00      -3.85452e+00       1.02297e-03       8.28343e+02
  1.800      2.81906e+02      -3.75853e+00      -3.73519e+00       1.01157e-03       8.18434e+02
  1.900      2.81647e+02      -3.93548e+00      -3.62752e+00       1.00038e-03       8.08633e+02
  2.000      2.81352e+02      -4.04091e+00      -3.50672e+00       9.89422e-04       7.98937e+02
  2.100      2.81015e+02      -4.05832e+00      -3.35739e+00       9.78712e-04       7.89344e+02
  2.200      2.80643e+02      -3.99823e+00      -3.19143e+00       9.68223e-04       7.79852e+02
  2.300      2.80245e+02      -3.87598e+00      -3.02558e+00       9.57922e-04       7.70459e+02
  2.400      2.79828e+02      -3.70693e+00      -2.87661e+00       9.47775e-04       7.61166e+02
  2.500      2.79403e+02      -3.50643e+00      -2.76128e+00       9.37752e-04       7.51970e+02
  2.600      2.78975e+02      -3.28873e+00      -2.69436e+00       9.27826e-04       7.42871e+02
  2.700      2.78542e+02      -3.05961e+00      -2.67515e+00       9.18006e-04       7.33867e+02
  2.800      2.78096e+02      -2.82089e+00      -2.69573e+00       9.08316e-04       7.24958e+02
  2.900      2.77629e+02      -2.57434e+00      -2.74813e+00       8.98779e-04       7.16142e+02
  3.000      2.77134e+02      -2.32175e+00      -2.82438e+00       8.89416e-04       7.07418e+02
  3.100      2.76602e+02      -2.06492e+00      -2.91651e+00       8.80250e-04       6.98784e+02
  3.200      2.76030e+02      -1.80720e+00      -3.01341e+00       8.71287e-04       6.90240e+02
  3.300      2.75428e+02      -1.55613e+00      -3.09576e+00       8.62495e-04       6.81783e+02
  3.400      2.74804e+02      -1.31989e+00      -3.14287e+00       8.53839e-04       6.73412e+02
  3.500      2.74169e+02      -1.10669e+00      -3.13408e+00       8.45283e-04       6.65124e+02
  3.600      2.73534e+02      -9.24720e-01      -3.04872e+00       8.36795e-04       6.56919e+02
  3.700      2.72908e+02      -7.82179e-01      -2.86613e+00       8.28340e-04       6.48794e+02
  3.800      2.72299e+02      -6.83630e-01      -2.57873e+00       8.19897e-04       6.40749e+02
  3.900      2.71708e+02      -6.24292e-01      -2.21254e+00       8.11466e-04       6.32783e+02
  4.000      2.71133e+02      -5.97903e-01      -1.79894e+00       8.03054e-04       6.24899e+02
  4.100      2.70574e+02      -5.98198e-01      -1.36929e+00       7.94665e-04       6.17096e+02
  4.200      2.70030e+02      -6.18911e-01      -9.54971e-01       7.86303e-04       6.09375e+02
  4.300      2.69500e+02      -6.53780e-01      -5.87359e-01       7.77974e-04       6.01737e+02
  4.400      2.68984e+02      -6.96665e-01      -2.94113e-01       7.69683e-04       5.94182e+02
  4.500      2.68478e+02      -7.42444e-01      -7.27368e-02       7.61435e-04       5.86709e+02
  4.600      2.67980e+02      -7.86490e-01       9.39119e-02       7.53239e-04       5.79318e+02
  4.700      2.67487e+02      -8.24178e-01       2.23074e-01       7.45101e-04       5.72006e+02
  4.800      2.66998e+02      -8.50884e-01       3.31990e-01       7.37028e-04       5.64772e+02
  4.900      2.66508e+02      -8.61984e-01       4.37900e-01       7.29027e-04       5.57616e+02
  5.000      2.66015e+02      -8.52852e-01       5.58045e-01       7.21104e-04       5.50535e+02
  5.100      2.65516e+02      -8.19335e-01       7.07734e-01       7.13264e-04       5.43530e+02
  5.200      2.65011e+02      -7.59640e-01       8.92561e-01       7.05510e-04       5.36598e+02
  5.300      2.64498e+02      -6.72713e-01       1.11508e+00       6.97844e-04       5.29741e+02
  5.400      2.63977e+02      -5.57504e-01       1.37783e+00       6.90269e-04       5.22958e+02
  5.500      2.63447e+02      -4.12961e-01       1.68336e+00       6.82784e-04       5.16248e+02
  5.600      2.62906e+02      -2.38032e-01       2.03422e+00       6.75394e-04       5.09612e+02
  5.700      2.62354e+02      -3.16644e-02       2.43295e+00       6.68098e-04       5.03048e+02
  5.800      2.61790e+02       2.06822e-01       2.88171e+00       6.60897e-04       4.96558e+02
  5.900      2.61216e+02       4.70698e-01       3.37458e+00       6.53790e-04       4.90139e+02
  6.000      2.60631e+02       7.46420e-01       3.89827e+00       6.46767e-04       4.83789e+02
  6.100      2.60040e+02       1.02019e+00       4.43917e+00       6.39822e-04       4.77508e+02
  6.200      2.59443e+02       1.27821e+00       4.98371e+00       6.32947e-04       4.71292e+02
  6.300      2.58842e+02       1.50667e+00       5.51830e+00       6.26136e-04       4.65142e+02
  6.400      2.58240e+02       1.69179e+00       6.02936e+00       6.19381e-04       4.59054e+02
  6.500      2.57639e+02       1.81975e+00       6.50329e+00       6.12676e-04       4.53028e+02
  6.600      2.57040e+02       1.87728e+00       6.92689e+00       6.06016e-04       4.47062e+02
  6.700      2.56445e+02       1.86314e+00       7.29574e+00       5.99398e-04       4.41156e+02
  6.800      2.55854e+02       1.78839e+00       7.61437e+00       5.92827e-04       4.35314e+02
  6.900      2.55267e+02       1.66460e+00       7.88768e+00       5.86306e-04       4.29537e+02
  7.000      2.54685e+02       1.50339e+00       8.12062e+00       5.79837e-04       4.23829e+02
  7.100      2.54106e+02       1.31633e+00       8.31810e+00       5.73424e-04       4.18190e+02
  7.200      2.53533e+02       1.11502e+00       8.48504e+00       5.67070e-04       4.12623e+02
  7.300      2.52965e+02       9.11056e-01       8.62638e+00       5.60778e-04       4.07130e+02
  7.400      2.52402e+02       7.16024e-01       8.74703e+00       5.54550e-04       4.01713e+02
  7.500      2.51845e+02       5.40977e-01       8.85171e+00       5.48388e-04       3.96372e+02
  7.600      2.51292e+02       3.90993e-01       8.94288e+00       5.42288e-04       3.91103e+02
  7.700      2.50743e+02       2.67439e-01       9.02160e+00       5.36240e-04       3.85895e+02
  7.800      2.50195e+02       1.71625e-01       9.08890e+00       5.30236e-04       3.80741e+02
  7.900      2.49648e+02       1.04865e-01       9.14581e+00       5.24267e-04       3.75632e+02
  8.000      2.49100e+02       6.84681e-02       9.19337e+00       5.18326e-04       3.70560e+02
  8.100      2.48549e+02       6.37462e-02       9.23261e+00       5.12406e-04       3.65518e+02
  8.200      2.47995e+02       9.20102e-02       9.26456e+00       5.06499e-04       3.60499e+02
  8.300      2.47436e+02       1.54572e-01       9.29027e+00       5.00598e-04       3.55496e+02
  8.400      2.46871e+02       2.52741e-01       9.31075e+00       4.94698e-04       3.50503e+02
  8.500      2.46297e+02       3.86987e-01       9.32703e+00       4.88797e-04       3.45518e+02
  8.600      2.45718e+02       5.53191e-01       9.34001e+00       4.82917e-04       3.40558e+02
  8.700      2.45135e+02       7.45691e-01       9.35056e+00       4.77086e-04       3.35648e+02
  8.800      2.44550e+02       9.58828e-01       9.35953e+00       4.71332e-04       3.30808e+02
  8.900      2.43965e+02       1.18694e+00       9.36781e+00       4.65680e-04       3.26060e+02
  9.000      2.43383e+02       1.42436e+00       9.37625e+00       4.60156e-04       3.21423e+02
  9.100      2.42805e+02       1.66542e+00       9.38572e+00       4.54782e-04       3.16915e+02
  9.200      2.42234e+02       1.90448e+00       9.39708e+00       4.49581e-04       3.12553e+02
  9.300      2.41671e+02       2.13585e+00       9.41122e+00       4.44573e-04       3.08354e+02
  9.400      2.41120e+02       2.35389e+00       9.42898e+00       4.39780e-04       3.04333e+02
  9.500      2.40581e+02       2.55292e+00       9.45124e+00       4.35219e-04       3.00505e+02
  9.600      2.40057e+02       2.72802e+00       9.47882e+00       4.30906e-04       2.96879e+02
  9.700      2.39548e+02       2.87866e+00       9.51227e+00       4.26823e-04       2.93442e+02
  9.800      2.39051e+02       3.00596e+00       9.55207e+00       4.22944e-04       2.90173e+02
  9.900      2.38567e+02       3.11104e+00       9.59867e+00       4.19245e-04       2.87052e+02
 10.000      2.38094e+02       3.19503e+00       9.65252e+00       4.15700e-04       2.84061e+02
 10.100      2.37631e+02       3.25906e+00       9.71411e+00       4.12287e-04       2.81180e+02
 10.200      2.37176e+02       3.30425e+00       9.78387e+00       4.08983e-04       2.78393e+02
 10.300      2.36729e+02       3.33171e+00       9.86228e+00       4.05766e-04       2.75683e+02
 10.400      2.36289e+02       3.34258e+00       9.94980e+00       4.02615e-04       2.73033e+02
 10.500      2.35853e+02       3.33798e+00       1.00469e+01       3.99510e-04       2.70427e+02
 10.600      2.35422e+02       3.31903e+00       1.01540e+01       3.96430e-04       2.67852e+02
 10.700      2.34993e+02       3.28686e+00       1.02716e+01       3.93357e-04       2.65292e+02
 10.800      2.34566e+02       3.24259e+00       1.04001e+01       3.90272e-04       2.62733e+02
 10.900      2.34140e+02       3.18734e+00       1.05401e+01       3.87157e-04       2.60163e+02
 11.000      2.33713e+02       3.12225e+00       1.06919e+01       3.83995e-04       2.57568e+02
 11.100      2.33285e+02       3.04842e+00       1.08561e+01       3.80769e-04       2.54935e+02
 11.200      2.32854e+02       2.96700e+00       1.10330e+01       3.77462e-04       2.52255e+02
 11.300      2.32419e+02       2.87909e+00       1.12232e+01       3.74060e-04       2.49514e+02
 11.400      2.31979e+02       2.78621e+00       1.14261e+01       3.70553e-04       2.46706e+02
 11.500      2.31532e+02       2.69073e+00       1.16386e+01       3.66942e-04       2.43832e+02
 11.600      2.31079e+02       2.59518e+00       1.18573e+01       3.63232e-04       2.40894e+02
 11.700      2.30618e+02       2.50207e+00       1.20788e+01       3.59425e-04       2.37894e+02
 11.800      2.30148e+02       2.41393e+00       1.22997e+01       3.55526e-04       2.34833e+02
 11.900      2.29668e+02       2.33328e+00       1.25165e+01       3.51538e-04       2.31715e+02
 12.000      2.29177e+02       2.26262e+00       1.27260e+01       3.47466e-04       2.28542e+02
 12.100      2.28675e+02       2.20448e+00       1.29246e+01       3.43313e-04       2.25315e+02
 12.200      2.28160e+02       2.16139e+00       1.31089e+01       3.39084e-04       2.22039e+02
 12.300      2.27632e+02       2.13585e+00       1.32755e+01       3.34782e-04       2.18714e+02
 12.400      2.27089e+02       2.13038e+00       1.34211e+01       3.30412e-04       2.15344e+02
 12.500      2.26530e+02       2.14751e+00       1.35422e+01       3.25978e-04       2.11932e+02
 12.600      2.25955e+02       2.18975e+00       1.36354e+01       3.21485e-04       2.08480e+02
 12.700      2.25363e+02       2.25962e+00       1.36972e+01       3.16936e-04       2.04991e+02
 12.800      2.24752e+02       2.35965e+00       1.37244e+01       3.12336e-04       2.01468e+02
 12.900      2.24122e+02       2.49210e+00       1.37136e+01       3.07689e-04       1.97915e+02
 13.000      2.23475e+02       2.65557e+00       1.36649e+01       3.03005e-04       1.94340e+02
 13.100      2.22814e+02       2.84566e+00       1.35809e+01       2.98299e-04       1.90755e+02
 13.200      2.22142e+02       3.05791e+00       1.34644e+01       2.93583e-04       1.87173e+02
 13.300      2.21464e+02       3.28783e+00       1.33181e+01       2.88869e-04       1.83606e+02
 13.400      2.20783e+02       3.53097e+00       1.31447e+01       2.84170e-04       1.80063e+02
 13.500      2.20102e+02       3.78285e+00       1.29469e+01       2.79496e-04       1.76555e+02
 13.600      2.19425e+02       4.03900e+00       1.27274e+01       2.74857e-04       1.73091e+02
 13.700      2.18755e+02       4.29495e+00       1.24889e+01       2.70263e-04       1.69678e+02
 13.800      2.18097e+02       4.54624e+00       1.22341e+01       2.65723e-04       1.66326e+02
 13.900      2.17454e+02       4.78838e+00       1.19659e+01       2.61245e-04       1.63041e+02
 14.000      2.16829e+02       5.01691e+00       1.16867e+01       2.56837e-04       1.59830e+02
 14.100      2.16226e+02       5.22737e+00       1.13995e+01       2.52506e-04       1.56697e+02
 14.200      2.15649e+02       5.41527e+00       1.11068e+01       2.48258e-04       1.53650e+02
 14.300      2.15101e+02       5.57615e+00       1.08115e+01       2.44099e-04       1.50692e+02
 14.400      2.14586e+02       5.70598e+00       1.05159e+01       2.40033e-04       1.47827e+02
 14.500      2.14103e+02       5.80435e+00       1.02212e+01       2.36061e-04       1.45054e+02
 14.600      2.13652e+02       5.87266e+00       9.92731e+00       2.32178e-04       1.42367e+02
 14.700      2.13231e+02       5.91236e+00       9.63449e+00       2.28381e-04       1.39763e+02
 14.800      2.12840e+02       5.92486e+00       9.34285e+00       2.24667e-04       1.37238e+02
 14.900      2.12477e+02       5.91159e+00       9.05253e+00       2.21032e-04       1.34788e+02
 15.000      2.12141e+02       5.87397e+00       8.76365e+00       2.17474e-04       1.32408e+02
 15.100      2.11831e+02       5.81343e+00       8.47637e+00       2.13990e-04       1.30097e+02
 15.200      2.11546e+02       5.73139e+00       8.19081e+00       2.10577e-04       1.27849e+02
 15.300      2.11284e+02       5.62928e+00       7.90711e+00       2.07233e-04       1.25663e+02
 15.400      2.11045e+02       5.50853e+00       7.62542e+00       2.03955e-04       1.23535e+02
 15.500      2.10827e+02       5.37055e+00       7.34586e+00       2.00740e-04       1.21463e+02
 15.600      2.10630e+02       5.21677e+00       7.06857e+00       1.97588e-04       1.19443e+02
 15.700      2.10451e+02       5.04862e+00       6.79369e+00       1.94494e-04       1.17473e+02
 15.800      2.10290e+02       4.86752e+00       6.52136e+00       1.91458e-04       1.15551e+02
 15.900      2.10146e+02       4.67490e+00       6.25171e+00       1.88477e-04       1.13674e+02
 16.000      2.10018e+02       4.47219e+00       5.98489e+00       1.85550e-04       1.11840e+02
 16.100      2.09904e+02       4.26080e+00       5.72102e+00       1.82674e-04       1.10047e+02
 16.200      2.09803e+02       4.04216e+00       5.46024e+00       1.79848e-04       1.08293e+02
 16.300      2.09714e+02       3.81770e+00       5.20270e+00       1.77071e-04       1.06575e+02
 16.400      2.09637e+02       3.58885e+00       4.94853e+00       1.74340e-04       1.04893e+02
 16.500      2.09569e+02       3.35702e+00       4.69785e+00       1.71654e-04       1.03243e+02
 16.600      2.09510e+02       3.12364e+00       4.45083e+00       1.69012e-04       1.01626e+02
 16.700      2.09459e+02       2.89014e+00       4.20757e+00       1.66412e-04       1.00038e+02
 16.800      2.09414e+02       2.65774e+00       3.96829e+00       1.63852e-04       9.84781e+01
 16.900      2.09376e+02       2.42672e+00       3.73333e+00       1.61332e-04       9.69459e+01
 17.000      2.09344e+02       2.19716e+00       3.50313e+00       1.58850e-04       9.54400e+01
 17.100      2.09321e+02       1.96910e+00       3.27811e+00       1.56404e-04       9.39596e+01
 17.200      2.09304e+02       1.74262e+00       3.05869e+00       1.53992e-04       9.25037e+01
 17.300      2.09296e+02       1.51776e+00       2.84531e+00       1.51614e-04       9.10716e+01
 17.400      2.09296e+02       1.29458e+00       2.63837e+00       1.49268e-04       8.96623e+01
 17.500      2.09305e+02       1.07314e+00       2.43832e+00       1.46952e-04       8.82751e+01
 17.600      2.09322e+02       8.53493e-01       2.24556e+00       1.44667e-04       8.69093e+01
 17.700      2.09349e+02       6.35707e-01       2.06054e+00       1.42409e-04       8.55640e+01
 17.800      2.09386e+02       4.19838e-01       1.88366e+00       1.40179e-04       8.42388e+01
 17.900      2.09432e+02       2.05938e-01       1.71536e+00       1.37975e-04       8.29328e+01
 18.000      2.09488e+02      -5.93279e-03       1.55605e+00       1.35797e-04       8.16455e+01
 18.100      2.09555e+02      -2.15716e-01       1.40616e+00       1.33643e-04       8.03761e+01
 18.200      2.09633e+02      -4.23354e-01       1.26613e+00       1.31513e-04       7.91243e+01
 18.300      2.09722e+02      -6.28784e-01       1.13636e+00       1.29405e-04       7.78893e+01
 18.400      2.09822e+02      -8.31958e-01       1.01729e+00       1.27320e-04       7.66707e+01
 18.500      2.09935e+02      -1.03281e+00       9.09335e-01       1.25255e-04       7.54679e+01
 18.600      2.10059e+02      -1.23129e+00       8.12923e-01       1.23212e-04       7.42805e+01
 18.700      2.10196e+02      -1.42733e+00       7.28480e-01       1.21188e-04       7.31079e+01
 18.800      2.10345e+02      -1.62088e+00       6.56428e-01       1.19183e-04       7.19498e+01
 18.900      2.10508e+02      -1.81188e+00       5.97190e-01       1.17198e-04       7.08057e+01
 19.000      2.10683e+02      -2.00027e+00       5.51187e-01       1.15230e-04       6.96753e+01
 19.100      2.10872e+02      -2.18591e+00       5.18414e-01       1.13281e-04       6.85583e+01
 19.200      2.11074e+02      -2.36854e+00       4.98126e-01       1.11352e-04       6.74552e+01
 19.300      2.11286e+02      -2.54786e+00       4.89505e-01       1.09445e-04       6.63663e+01
 19.400      2.11509e+02      -2.72359e+00       4.91729e-01       1.07560e-04       6.52919e+01
 19.500      2.11740e+02      -2.89544e+00       5.03981e-01       1.05699e-04       6.42324e+01
 19.600      2.11980e+02      -3.06313e+00       5.25440e-01       1.03863e-04       6.31881e+01
 19.700      2.12226e+02      -3.22638e+00       5.55287e-01       1.02053e-04       6.21591e+01
 19.800      2.12478e+02      -3.38488e+00       5.92702e-01       1.00270e-04       6.11457e+01
 19.900      2.12734e+02      -3.53837e+00       6.36867e-01       9.85151e-05       6.01482e+01
 20.000      2.12995e+02      -3.68655e+00       6.86962e-01       9.67890e-05       5.91666e+01
 20.100      2.13258e+02      -3.82913e+00       7.42166e-01       9.50923e-05       5.82012e+01
 20.200      2.13522e+02      -3.96584e+00       8.01662e-01       9.34258e-05       5.72520e+01
