# Data Source: NASA MERRA (version 1)
# Model Time = 2010-02-11 18:00:00
# Location = [  39.7393, -104.9900 ]
# Fields = [ Z(km), T(K), U(m/s), V(m/s), R(g/cm3), P(mbar) ]
# Ground Height = 1.589
  0.000      2.86580e+02      -1.68578e+00       7.62217e-01       1.23103e-03       1.01250e+03
  0.100      2.85922e+02      -1.71544e+00       7.51957e-01       1.21922e-03       1.00049e+03
  0.200      2.85263e+02      -1.74561e+00       7.41707e-01       1.20754e-03       9.88617e+02
  0.300      2.84615e+02      -1.76393e+00       7.31213e-01       1.19591e-03       9.76872e+02
  0.400      2.83983e+02      -1.76286e+00       7.18564e-01       1.18429e-03       9.65237e+02
  0.500      2.83342e+02      -1.76628e+00       6.91033e-01       1.17280e-03       9.53707e+02
  0.600      2.82655e+02      -1.80572e+00       6.35594e-01       1.16157e-03       9.42286e+02
  0.700      2.81931e+02      -1.85772e+00       5.84452e-01       1.15057e-03       9.30976e+02
  0.800      2.81207e+02      -1.86626e+00       5.95936e-01       1.13966e-03       9.19777e+02
  0.900      2.80511e+02      -1.82857e+00       6.66652e-01       1.12871e-03       9.08688e+02
  1.000      2.79866e+02      -1.80035e+00       7.25729e-01       1.11764e-03       8.97709e+02
  1.100      2.79277e+02      -1.81856e+00       7.28610e-01       1.10644e-03       8.86837e+02
  1.200      2.78717e+02      -1.87306e+00       6.95324e-01       1.09521e-03       8.76073e+02
  1.300      2.78154e+02      -1.94756e+00       6.54377e-01       1.08407e-03       8.65415e+02
  1.400      2.77557e+02      -2.02573e+00       6.34275e-01       1.07316e-03       8.54865e+02
  1.500      2.76897e+02      -2.09134e+00       6.62047e-01       1.06257e-03       8.44421e+02
  1.600      2.76167e+02      -2.12935e+00       7.35815e-01       1.05234e-03       8.34082e+02
  1.700      2.75382e+02      -2.12583e+00       8.27348e-01       1.04239e-03       8.23844e+02
  1.800      2.74559e+02      -2.06691e+00       9.07453e-01       1.03264e-03       8.13704e+02
  1.900      2.73714e+02      -1.93870e+00       9.46935e-01       1.02304e-03       8.03658e+02
  2.000      2.72863e+02      -1.72823e+00       9.18479e-01       1.01352e-03       7.93704e+02
  2.100      2.72014e+02      -1.43459e+00       8.19450e-01       1.00405e-03       7.83839e+02
  2.200      2.71172e+02      -1.06534e+00       6.64600e-01       9.94608e-04       7.74066e+02
  2.300      2.70340e+02      -6.28230e-01       4.69050e-01       9.85191e-04       7.64385e+02
  2.400      2.69522e+02      -1.31007e-01       2.47914e-01       9.75785e-04       7.54796e+02
  2.500      2.68721e+02       4.18229e-01       1.58581e-02       9.66379e-04       7.45301e+02
  2.600      2.67937e+02       1.00312e+00      -2.23113e-01       9.56979e-04       7.35898e+02
  2.700      2.67164e+02       1.59895e+00      -4.75756e-01       9.47607e-04       7.26587e+02
  2.800      2.66395e+02       2.18065e+00      -7.49305e-01       9.38285e-04       7.17368e+02
  2.900      2.65623e+02       2.72313e+00      -1.05099e+00       9.29034e-04       7.08239e+02
  3.000      2.64843e+02       3.20133e+00      -1.38805e+00       9.19877e-04       6.99199e+02
  3.100      2.64051e+02       3.59802e+00      -1.76398e+00       9.10825e-04       6.90247e+02
  3.200      2.63250e+02       3.91999e+00      -2.17078e+00       9.01864e-04       6.81384e+02
  3.300      2.62445e+02       4.17866e+00      -2.59828e+00       8.92977e-04       6.72607e+02
  3.400      2.61642e+02       4.38544e+00      -3.03630e+00       8.84146e-04       6.63916e+02
  3.500      2.60844e+02       4.55174e+00      -3.47466e+00       8.75354e-04       6.55310e+02
  3.600      2.60057e+02       4.68889e+00      -3.90317e+00       8.66586e-04       6.46788e+02
  3.700      2.59285e+02       4.80485e+00      -4.31096e+00       8.57829e-04       6.38351e+02
  3.800      2.58530e+02       4.90294e+00      -4.68623e+00       8.49078e-04       6.29999e+02
  3.900      2.57793e+02       4.98612e+00      -5.01711e+00       8.40330e-04       6.21732e+02
  4.000      2.57078e+02       5.05738e+00      -5.29174e+00       8.31580e-04       6.13552e+02
  4.100      2.56387e+02       5.11970e+00      -5.49824e+00       8.22823e-04       6.05458e+02
  4.200      2.55721e+02       5.17604e+00      -5.62491e+00       8.14057e-04       5.97452e+02
  4.300      2.55081e+02       5.22947e+00      -5.67001e+00       8.05283e-04       5.89533e+02
  4.400      2.54464e+02       5.28319e+00      -5.64789e+00       7.96512e-04       5.81701e+02
  4.500      2.53867e+02       5.34040e+00      -5.57433e+00       7.87753e-04       5.73954e+02
  4.600      2.53286e+02       5.40432e+00      -5.46512e+00       7.79019e-04       5.66293e+02
  4.700      2.52720e+02       5.47814e+00      -5.33606e+00       7.70318e-04       5.58717e+02
  4.800      2.52165e+02       5.56508e+00      -5.20293e+00       7.61662e-04       5.51224e+02
  4.900      2.51617e+02       5.66769e+00      -5.08017e+00       7.53060e-04       5.43815e+02
  5.000      2.51074e+02       5.78425e+00      -4.97323e+00       7.44521e-04       5.36488e+02
  5.100      2.50532e+02       5.91128e+00      -4.88395e+00       7.36057e-04       5.29244e+02
  5.200      2.49987e+02       6.04532e+00      -4.81413e+00       7.27676e-04       5.22081e+02
  5.300      2.49438e+02       6.18288e+00      -4.76558e+00       7.19388e-04       5.15000e+02
  5.400      2.48880e+02       6.32050e+00      -4.74012e+00       7.11202e-04       5.08001e+02
  5.500      2.48309e+02       6.45471e+00      -4.73956e+00       7.03127e-04       5.01082e+02
  5.600      2.47724e+02       6.58188e+00      -4.76550e+00       6.95170e-04       4.94244e+02
  5.700      2.47122e+02       6.69752e+00      -4.81814e+00       6.87332e-04       4.87484e+02
  5.800      2.46503e+02       6.79676e+00      -4.89715e+00       6.79613e-04       4.80802e+02
  5.900      2.45865e+02       6.87474e+00      -5.00218e+00       6.72013e-04       4.74195e+02
  6.000      2.45209e+02       6.92660e+00      -5.13289e+00       6.64529e-04       4.67662e+02
  6.100      2.44532e+02       6.94748e+00      -5.28894e+00       6.57162e-04       4.61201e+02
  6.200      2.43834e+02       6.93251e+00      -5.46997e+00       6.49910e-04       4.54810e+02
  6.300      2.43115e+02       6.87686e+00      -5.67566e+00       6.42774e-04       4.48490e+02
  6.400      2.42375e+02       6.77948e+00      -5.90501e+00       6.35749e-04       4.42237e+02
  6.500      2.41617e+02       6.64687e+00      -6.15578e+00       6.28823e-04       4.36052e+02
  6.600      2.40847e+02       6.48644e+00      -6.42559e+00       6.21984e-04       4.29934e+02
  6.700      2.40068e+02       6.30558e+00      -6.71204e+00       6.15221e-04       4.23884e+02
  6.800      2.39285e+02       6.11170e+00      -7.01275e+00       6.08520e-04       4.17900e+02
  6.900      2.38502e+02       5.91220e+00      -7.32532e+00       6.01873e-04       4.11982e+02
  7.000      2.37723e+02       5.71448e+00      -7.64737e+00       5.95267e-04       4.06130e+02
  7.100      2.36953e+02       5.52594e+00      -7.97650e+00       5.88692e-04       4.00343e+02
  7.200      2.36195e+02       5.35339e+00      -8.30894e+00       5.82142e-04       3.94622e+02
  7.300      2.35441e+02       5.20081e+00      -8.63430e+00       5.75633e-04       3.88964e+02
  7.400      2.34683e+02       5.07133e+00      -8.94022e+00       5.69184e-04       3.83368e+02
  7.500      2.33913e+02       4.96807e+00      -9.21431e+00       5.62815e-04       3.77835e+02
  7.600      2.33121e+02       4.89416e+00      -9.44423e+00       5.56546e-04       3.72361e+02
  7.700      2.32298e+02       4.85272e+00      -9.61760e+00       5.50395e-04       3.66946e+02
  7.800      2.31436e+02       4.84690e+00      -9.72205e+00       5.44380e-04       3.61589e+02
  7.900      2.30526e+02       4.87980e+00      -9.74522e+00       5.38519e-04       3.56289e+02
  8.000      2.29559e+02       4.95457e+00      -9.67474e+00       5.32828e-04       3.51046e+02
  8.100      2.28529e+02       5.07357e+00      -9.50099e+00       5.27320e-04       3.45857e+02
  8.200      2.27449e+02       5.23347e+00      -9.23483e+00       5.21960e-04       3.40724e+02
  8.300      2.26341e+02       5.42842e+00      -8.89627e+00       5.16697e-04       3.35646e+02
  8.400      2.25228e+02       5.65253e+00      -8.50540e+00       5.11481e-04       3.30624e+02
  8.500      2.24133e+02       5.89993e+00      -8.08227e+00       5.06262e-04       3.25659e+02
  8.600      2.23077e+02       6.16474e+00      -7.64695e+00       5.00992e-04       3.20750e+02
  8.700      2.22083e+02       6.44108e+00      -7.21952e+00       4.95622e-04       3.15899e+02
  8.800      2.21173e+02       6.72309e+00      -6.82005e+00       4.90108e-04       3.11104e+02
  8.900      2.20370e+02       7.00487e+00      -6.46860e+00       4.84404e-04       3.06367e+02
  9.000      2.19695e+02       7.28056e+00      -6.18524e+00       4.78469e-04       3.01687e+02
  9.100      2.19170e+02       7.54461e+00      -5.98881e+00       4.72267e-04       2.97064e+02
  9.200      2.18795e+02       7.79589e+00      -5.88219e+00       4.65809e-04       2.92501e+02
  9.300      2.18554e+02       8.03635e+00      -5.85707e+00       4.59141e-04       2.87996e+02
  9.400      2.18433e+02       8.26799e+00      -5.90495e+00       4.52307e-04       2.83553e+02
  9.500      2.18417e+02       8.49284e+00      -6.01730e+00       4.45351e-04       2.79171e+02
  9.600      2.18490e+02       8.71289e+00      -6.18560e+00       4.38314e-04       2.74852e+02
  9.700      2.18638e+02       8.93016e+00      -6.40133e+00       4.31235e-04       2.70597e+02
  9.800      2.18846e+02       9.14666e+00      -6.65596e+00       4.24154e-04       2.66405e+02
  9.900      2.19098e+02       9.36440e+00      -6.94098e+00       4.17104e-04       2.62279e+02
 10.000      2.19380e+02       9.58538e+00      -7.24787e+00       4.10119e-04       2.58219e+02
 10.100      2.19676e+02       9.81162e+00      -7.56810e+00       4.03229e-04       2.54224e+02
 10.200      2.19972e+02       1.00451e+01      -7.89315e+00       3.96465e-04       2.50296e+02
 10.300      2.20254e+02       1.02876e+01      -8.21540e+00       3.89848e-04       2.46434e+02
 10.400      2.20519e+02       1.05393e+01      -8.53169e+00       3.83382e-04       2.42638e+02
 10.500      2.20765e+02       1.08001e+01      -8.84027e+00       3.77063e-04       2.38905e+02
 10.600      2.20991e+02       1.10696e+01      -9.13939e+00       3.70890e-04       2.35235e+02
 10.700      2.21198e+02       1.13477e+01      -9.42731e+00       3.64858e-04       2.31626e+02
 10.800      2.21383e+02       1.16342e+01      -9.70227e+00       3.58966e-04       2.28076e+02
 10.900      2.21545e+02       1.19289e+01      -9.96252e+00       3.53211e-04       2.24584e+02
 11.000      2.21685e+02       1.22315e+01      -1.02063e+01       3.47590e-04       2.21149e+02
 11.100      2.21800e+02       1.25419e+01      -1.04319e+01       3.42101e-04       2.17770e+02
 11.200      2.21890e+02       1.28598e+01      -1.06376e+01       3.36741e-04       2.14445e+02
 11.300      2.21955e+02       1.31850e+01      -1.08215e+01       3.31508e-04       2.11174e+02
 11.400      2.21992e+02       1.35172e+01      -1.09820e+01       3.26399e-04       2.07954e+02
 11.500      2.22001e+02       1.38564e+01      -1.11173e+01       3.21412e-04       2.04785e+02
 11.600      2.21981e+02       1.42022e+01      -1.12257e+01       3.16544e-04       2.01666e+02
 11.700      2.21931e+02       1.45545e+01      -1.13054e+01       3.11794e-04       1.98595e+02
 11.800      2.21853e+02       1.49120e+01      -1.13569e+01       3.07157e-04       1.95572e+02
 11.900      2.21747e+02       1.52728e+01      -1.13827e+01       3.02627e-04       1.92596e+02
 12.000      2.21617e+02       1.56346e+01      -1.13856e+01       2.98196e-04       1.89665e+02
 12.100      2.21465e+02       1.59953e+01      -1.13682e+01       2.93860e-04       1.86779e+02
 12.200      2.21294e+02       1.63528e+01      -1.13333e+01       2.89613e-04       1.83936e+02
 12.300      2.21105e+02       1.67050e+01      -1.12836e+01       2.85448e-04       1.81137e+02
 12.400      2.20901e+02       1.70496e+01      -1.12219e+01       2.81360e-04       1.78379e+02
 12.500      2.20686e+02       1.73846e+01      -1.11508e+01       2.77346e-04       1.75662e+02
 12.600      2.20460e+02       1.77077e+01      -1.10731e+01       2.73399e-04       1.72985e+02
 12.700      2.20227e+02       1.80169e+01      -1.09915e+01       2.69515e-04       1.70348e+02
 12.800      2.19989e+02       1.83100e+01      -1.09087e+01       2.65691e-04       1.67749e+02
 12.900      2.19748e+02       1.85849e+01      -1.08274e+01       2.61921e-04       1.65188e+02
 13.000      2.19508e+02       1.88394e+01      -1.07504e+01       2.58201e-04       1.62663e+02
 13.100      2.19269e+02       1.90714e+01      -1.06804e+01       2.54529e-04       1.60176e+02
 13.200      2.19035e+02       1.92787e+01      -1.06200e+01       2.50900e-04       1.57723e+02
 13.300      2.18808e+02       1.94592e+01      -1.05721e+01       2.47310e-04       1.55306e+02
 13.400      2.18591e+02       1.96107e+01      -1.05393e+01       2.43757e-04       1.52923e+02
 13.500      2.18386e+02       1.97311e+01      -1.05244e+01       2.40238e-04       1.50573e+02
 13.600      2.18195e+02       1.98185e+01      -1.05297e+01       2.36749e-04       1.48256e+02
 13.700      2.18018e+02       1.98731e+01      -1.05546e+01       2.33290e-04       1.45972e+02
 13.800      2.17856e+02       1.98960e+01      -1.05967e+01       2.29863e-04       1.43721e+02
 13.900      2.17706e+02       1.98886e+01      -1.06539e+01       2.26468e-04       1.41501e+02
 14.000      2.17570e+02       1.98520e+01      -1.07238e+01       2.23106e-04       1.39313e+02
 14.100      2.17445e+02       1.97874e+01      -1.08043e+01       2.19779e-04       1.37157e+02
 14.200      2.17333e+02       1.96962e+01      -1.08930e+01       2.16486e-04       1.35032e+02
 14.300      2.17231e+02       1.95794e+01      -1.09878e+01       2.13229e-04       1.32938e+02
 14.400      2.17140e+02       1.94384e+01      -1.10863e+01       2.10007e-04       1.30875e+02
 14.500      2.17059e+02       1.92744e+01      -1.11863e+01       2.06823e-04       1.28842e+02
 14.600      2.16987e+02       1.90886e+01      -1.12855e+01       2.03676e-04       1.26840e+02
 14.700      2.16923e+02       1.88822e+01      -1.13817e+01       2.00568e-04       1.24867e+02
 14.800      2.16868e+02       1.86565e+01      -1.14727e+01       1.97497e-04       1.22924e+02
 14.900      2.16820e+02       1.84127e+01      -1.15561e+01       1.94465e-04       1.21011e+02
 15.000      2.16779e+02       1.81520e+01      -1.16298e+01       1.91473e-04       1.19126e+02
 15.100      2.16745e+02       1.78757e+01      -1.16913e+01       1.88520e-04       1.17270e+02
 15.200      2.16716e+02       1.75849e+01      -1.17387e+01       1.85607e-04       1.15443e+02
 15.300      2.16693e+02       1.72810e+01      -1.17694e+01       1.82734e-04       1.13644e+02
 15.400      2.16674e+02       1.69650e+01      -1.17813e+01       1.79901e-04       1.11872e+02
 15.500      2.16659e+02       1.66384e+01      -1.17722e+01       1.77109e-04       1.10128e+02
 15.600      2.16648e+02       1.63022e+01      -1.17398e+01       1.74357e-04       1.08412e+02
 15.700      2.16639e+02       1.59577e+01      -1.16817e+01       1.71647e-04       1.06722e+02
 15.800      2.16633e+02       1.56062e+01      -1.15959e+01       1.68977e-04       1.05059e+02
 15.900      2.16628e+02       1.52489e+01      -1.14799e+01       1.66348e-04       1.03422e+02
 16.000      2.16624e+02       1.48870e+01      -1.13316e+01       1.63760e-04       1.01811e+02
 16.100      2.16621e+02       1.45217e+01      -1.11487e+01       1.61212e-04       1.00226e+02
 16.200      2.16618e+02       1.41542e+01      -1.09295e+01       1.58706e-04       9.86664e+01
 16.300      2.16615e+02       1.37857e+01      -1.06764e+01       1.56239e-04       9.71316e+01
 16.400      2.16611e+02       1.34171e+01      -1.03931e+01       1.53813e-04       9.56212e+01
 16.500      2.16607e+02       1.30494e+01      -1.00834e+01       1.51425e-04       9.41347e+01
 16.600      2.16601e+02       1.26836e+01      -9.75089e+00       1.49075e-04       9.26718e+01
 16.700      2.16595e+02       1.23208e+01      -9.39950e+00       1.46763e-04       9.12318e+01
 16.800      2.16588e+02       1.19619e+01      -9.03294e+00       1.44487e-04       8.98145e+01
 16.900      2.16579e+02       1.16080e+01      -8.65496e+00       1.42249e-04       8.84193e+01
 17.000      2.16570e+02       1.12601e+01      -8.26933e+00       1.40045e-04       8.70459e+01
 17.100      2.16558e+02       1.09191e+01      -7.87979e+00       1.37877e-04       8.56937e+01
 17.200      2.16545e+02       1.05862e+01      -7.49012e+00       1.35744e-04       8.43625e+01
 17.300      2.16530e+02       1.02622e+01      -7.10408e+00       1.33644e-04       8.30519e+01
 17.400      2.16513e+02       9.94825e+00      -6.72541e+00       1.31578e-04       8.17614e+01
 17.500      2.16494e+02       9.64532e+00      -6.35788e+00       1.29544e-04       8.04906e+01
 17.600      2.16472e+02       9.35442e+00      -6.00525e+00       1.27543e-04       7.92393e+01
 17.700      2.16448e+02       9.07656e+00      -5.67127e+00       1.25574e-04       7.80070e+01
 17.800      2.16421e+02       8.81276e+00      -5.35971e+00       1.23635e-04       7.67935e+01
 17.900      2.16391e+02       8.56402e+00      -5.07433e+00       1.21728e-04       7.55983e+01
 18.000      2.16359e+02       8.33134e+00      -4.81887e+00       1.19850e-04       7.44211e+01
 18.100      2.16323e+02       8.11575e+00      -4.59711e+00       1.18003e-04       7.32616e+01
 18.200      2.16284e+02       7.91824e+00      -4.41280e+00       1.16184e-04       7.21195e+01
 18.300      2.16242e+02       7.73984e+00      -4.26970e+00       1.14394e-04       7.09946e+01
 18.400      2.16196e+02       7.58154e+00      -4.17157e+00       1.12632e-04       6.98863e+01
 18.500      2.16146e+02       7.44380e+00      -4.12052e+00       1.10899e-04       6.87947e+01
 18.600      2.16093e+02       7.32537e+00      -4.11381e+00       1.09192e-04       6.77193e+01
 18.700      2.16037e+02       7.22471e+00      -4.14783e+00       1.07512e-04       6.66602e+01
 18.800      2.15978e+02       7.14031e+00      -4.21895e+00       1.05859e-04       6.56172e+01
 18.900      2.15917e+02       7.07060e+00      -4.32357e+00       1.04231e-04       6.45901e+01
 19.000      2.15854e+02       7.01406e+00      -4.45805e+00       1.02629e-04       6.35787e+01
 19.100      2.15789e+02       6.96914e+00      -4.61878e+00       1.01052e-04       6.25830e+01
 19.200      2.15724e+02       6.93431e+00      -4.80213e+00       9.94994e-05       6.16028e+01
 19.300      2.15657e+02       6.90803e+00      -5.00450e+00       9.79711e-05       6.06379e+01
 19.400      2.15590e+02       6.88876e+00      -5.22225e+00       9.64665e-05       5.96881e+01
 19.500      2.15523e+02       6.87497e+00      -5.45178e+00       9.49854e-05       5.87533e+01
 19.600      2.15456e+02       6.86511e+00      -5.68945e+00       9.35272e-05       5.78333e+01
 19.700      2.15390e+02       6.85765e+00      -5.93166e+00       9.20915e-05       5.69281e+01
 19.800      2.15324e+02       6.85104e+00      -6.17477e+00       9.06781e-05       5.60373e+01
 19.900      2.15260e+02       6.84375e+00      -6.41518e+00       8.92865e-05       5.51609e+01
 20.000      2.15198e+02       6.83425e+00      -6.64925e+00       8.79164e-05       5.42987e+01
 20.100      2.15137e+02       6.82099e+00      -6.87338e+00       8.65674e-05       5.34505e+01
 20.200      2.15079e+02       6.80243e+00      -7.08394e+00       8.52391e-05       5.26162e+01
 20.300      2.15024e+02       6.77705e+00      -7.27731e+00       8.39313e-05       5.17956e+01
