# Data Source: NASA MERRA (version 2)
# Model Time = 2011-11-25 18:00:00
# Location = [  39.1026,  -84.5123 ]
# Fields = [ Z(km), T(K), U(m/s), V(m/s), R(g/cm3), P(mbar) ]
# Ground Height = 0.165
  0.000      2.89608e+02       3.16678e+00       3.73524e+00       1.22957e-03       1.02199e+03
  0.100      2.88698e+02       3.89619e+00       4.55565e+00       1.21891e-03       1.00995e+03
  0.200      2.87894e+02       4.71086e+00       5.48225e+00       1.20794e-03       9.98070e+02
  0.300      2.87070e+02       5.50889e+00       6.38812e+00       1.19716e-03       9.86329e+02
  0.400      2.86099e+02       6.18837e+00       7.14632e+00       1.18705e-03       9.74692e+02
  0.500      2.84901e+02       6.69639e+00       7.69287e+00       1.17791e-03       9.63133e+02
  0.600      2.83564e+02       7.16101e+00       8.19615e+00       1.16935e-03       9.51651e+02
  0.700      2.82263e+02       7.75987e+00       8.83479e+00       1.16067e-03       9.40251e+02
  0.800      2.81463e+02       8.71933e+00       9.51838e+00       1.14999e-03       9.28958e+02
  0.900      2.81676e+02       1.02443e+01       1.00626e+01       1.13532e-03       9.17802e+02
  1.000      2.82599e+02       1.20394e+01       1.03972e+01       1.11803e-03       9.06790e+02
  1.100      2.83388e+02       1.34758e+01       1.05301e+01       1.10155e-03       8.95917e+02
  1.200      2.83600e+02       1.42490e+01       1.04902e+01       1.08753e-03       8.85178e+02
  1.300      2.83367e+02       1.45100e+01       1.03341e+01       1.07538e-03       8.74567e+02
  1.400      2.82862e+02       1.44437e+01       1.01204e+01       1.06438e-03       8.64078e+02
  1.500      2.82259e+02       1.42346e+01       9.90743e+00       1.05385e-03       8.53706e+02
  1.600      2.81722e+02       1.40584e+01       9.75047e+00       1.04317e-03       8.43445e+02
  1.700      2.81298e+02       1.39771e+01       9.66285e+00       1.03217e-03       8.33294e+02
  1.800      2.80952e+02       1.39737e+01       9.62891e+00       1.02098e-03       8.23250e+02
  1.900      2.80649e+02       1.40295e+01       9.63240e+00       1.00975e-03       8.13314e+02
  2.000      2.80353e+02       1.41261e+01       9.65708e+00       9.98598e-04       8.03484e+02
  2.100      2.80030e+02       1.42453e+01       9.68725e+00       9.87652e-04       7.93761e+02
  2.200      2.79675e+02       1.43753e+01       9.71432e+00       9.76922e-04       7.84142e+02
  2.300      2.79303e+02       1.45082e+01       9.73453e+00       9.66351e-04       7.74628e+02
  2.400      2.78932e+02       1.46364e+01       9.74424e+00       9.55883e-04       7.65218e+02
  2.500      2.78576e+02       1.47522e+01       9.73978e+00       9.45465e-04       7.55911e+02
  2.600      2.78251e+02       1.48480e+01       9.71751e+00       9.35045e-04       7.46708e+02
  2.700      2.77962e+02       1.49203e+01       9.67334e+00       9.24610e-04       7.37608e+02
  2.800      2.77698e+02       1.49709e+01       9.60260e+00       9.14199e-04       7.28610e+02
  2.900      2.77446e+02       1.50023e+01       9.50055e+00       9.03854e-04       7.19713e+02
  3.000      2.77196e+02       1.50171e+01       9.36247e+00       8.93613e-04       7.10917e+02
  3.100      2.76935e+02       1.50176e+01       9.18361e+00       8.83515e-04       7.02222e+02
  3.200      2.76652e+02       1.50064e+01       8.96042e+00       8.73596e-04       6.93627e+02
  3.300      2.76337e+02       1.49848e+01       8.69966e+00       8.63874e-04       6.85129e+02
  3.400      2.75986e+02       1.49540e+01       8.41354e+00       8.54364e-04       6.76725e+02
  3.500      2.75592e+02       1.49152e+01       8.11431e+00       8.45078e-04       6.68413e+02
  3.600      2.75148e+02       1.48694e+01       7.81423e+00       8.36028e-04       6.60189e+02
  3.700      2.74648e+02       1.48178e+01       7.52556e+00       8.27225e-04       6.52051e+02
  3.800      2.74087e+02       1.47620e+01       7.25849e+00       8.18676e-04       6.43995e+02
  3.900      2.73474e+02       1.47091e+01       7.00514e+00       8.10352e-04       6.36022e+02
  4.000      2.72824e+02       1.46688e+01       6.74825e+00       8.02204e-04       6.28130e+02
  4.100      2.72152e+02       1.46507e+01       6.47043e+00       7.94184e-04       6.20319e+02
  4.200      2.71473e+02       1.46648e+01       6.15435e+00       7.86247e-04       6.12587e+02
  4.300      2.70803e+02       1.47206e+01       5.78262e+00       7.78349e-04       6.04936e+02
  4.400      2.70155e+02       1.48278e+01       5.33819e+00       7.70447e-04       5.97363e+02
  4.500      2.69537e+02       1.49851e+01       4.81957e+00       7.62527e-04       5.89868e+02
  4.600      2.68937e+02       1.51747e+01       4.24842e+00       7.54619e-04       5.82452e+02
  4.700      2.68346e+02       1.53780e+01       3.64826e+00       7.46751e-04       5.75111e+02
  4.800      2.67752e+02       1.55760e+01       3.04263e+00       7.38952e-04       5.67847e+02
  4.900      2.67146e+02       1.57499e+01       2.45507e+00       7.31251e-04       5.60657e+02
  5.000      2.66516e+02       1.58809e+01       1.90910e+00       7.23675e-04       5.53541e+02
  5.100      2.65853e+02       1.59506e+01       1.42762e+00       7.16250e-04       5.46498e+02
  5.200      2.65153e+02       1.59557e+01       1.01855e+00       7.08982e-04       5.39528e+02
  5.300      2.64419e+02       1.59074e+01       6.74765e-01       7.01858e-04       5.32628e+02
  5.400      2.63655e+02       1.58176e+01       3.88518e-01       6.94866e-04       5.25799e+02
  5.500      2.62865e+02       1.56983e+01       1.52039e-01       6.87995e-04       5.19038e+02
  5.600      2.62051e+02       1.55614e+01      -4.24388e-02       6.81231e-04       5.12345e+02
  5.700      2.61219e+02       1.54189e+01      -2.02679e-01       6.74563e-04       5.05718e+02
  5.800      2.60370e+02       1.52827e+01      -3.36444e-01       6.67980e-04       4.99157e+02
  5.900      2.59510e+02       1.51619e+01      -4.49482e-01       6.61471e-04       4.92660e+02
  6.000      2.58643e+02       1.50586e+01      -5.42051e-01       6.55024e-04       4.86227e+02
  6.100      2.57771e+02       1.49733e+01      -6.13476e-01       6.48626e-04       4.79856e+02
  6.200      2.56900e+02       1.49066e+01      -6.63085e-01       6.42268e-04       4.73546e+02
  6.300      2.56033e+02       1.48592e+01      -6.90206e-01       6.35936e-04       4.67296e+02
  6.400      2.55175e+02       1.48316e+01      -6.94164e-01       6.29621e-04       4.61105e+02
  6.500      2.54330e+02       1.48245e+01      -6.74287e-01       6.23312e-04       4.54972e+02
  6.600      2.53501e+02       1.48385e+01      -6.29920e-01       6.16999e-04       4.48897e+02
  6.700      2.52692e+02       1.48720e+01      -5.65009e-01       6.10676e-04       4.42879e+02
  6.800      2.51902e+02       1.49180e+01      -4.94304e-01       6.04351e-04       4.36921e+02
  6.900      2.51130e+02       1.49688e+01      -4.34097e-01       5.98032e-04       4.31027e+02
  7.000      2.50374e+02       1.50166e+01      -4.00681e-01       5.91726e-04       4.25199e+02
  7.100      2.49634e+02       1.50538e+01      -4.10351e-01       5.85442e-04       4.19440e+02
  7.200      2.48909e+02       1.50726e+01      -4.79399e-01       5.79186e-04       4.13753e+02
  7.300      2.48197e+02       1.50653e+01      -6.24121e-01       5.72967e-04       4.08139e+02
  7.400      2.47498e+02       1.50243e+01      -8.60808e-01       5.66790e-04       4.02602e+02
  7.500      2.46811e+02       1.49422e+01      -1.20501e+00       5.60662e-04       3.97143e+02
  7.600      2.46133e+02       1.48211e+01      -1.65711e+00       5.54583e-04       3.91758e+02
  7.700      2.45461e+02       1.46719e+01      -2.20325e+00       5.48546e-04       3.86435e+02
  7.800      2.44792e+02       1.45057e+01      -2.82904e+00       5.42546e-04       3.81167e+02
  7.900      2.44122e+02       1.43337e+01      -3.52007e+00       5.36577e-04       3.75942e+02
  8.000      2.43449e+02       1.41670e+01      -4.26197e+00       5.30634e-04       3.70754e+02
  8.100      2.42770e+02       1.40168e+01      -5.04032e+00       5.24711e-04       3.65592e+02
  8.200      2.42080e+02       1.38943e+01      -5.84073e+00       5.18804e-04       3.60450e+02
  8.300      2.41378e+02       1.38106e+01      -6.64881e+00       5.12909e-04       3.55320e+02
  8.400      2.40659e+02       1.37769e+01      -7.45016e+00       5.07021e-04       3.50195e+02
  8.500      2.39922e+02       1.38012e+01      -8.23228e+00       5.01142e-04       3.45074e+02
  8.600      2.39168e+02       1.38771e+01      -8.99113e+00       4.95296e-04       3.39978e+02
  8.700      2.38402e+02       1.39941e+01      -9.72507e+00       4.89514e-04       3.34933e+02
  8.800      2.37628e+02       1.41420e+01      -1.04325e+01       4.83822e-04       3.29962e+02
  8.900      2.36847e+02       1.43104e+01      -1.11116e+01       4.78248e-04       3.25090e+02
  9.000      2.36065e+02       1.44888e+01      -1.17609e+01       4.72818e-04       3.20338e+02
  9.100      2.35285e+02       1.46670e+01      -1.23787e+01       4.67555e-04       3.15725e+02
  9.200      2.34511e+02       1.48344e+01      -1.29634e+01       4.62482e-04       3.11272e+02
  9.300      2.33745e+02       1.49808e+01      -1.35132e+01       4.57622e-04       3.06995e+02
  9.400      2.32993e+02       1.50957e+01      -1.40266e+01       4.52994e-04       3.02912e+02
  9.500      2.32256e+02       1.51689e+01      -1.45018e+01       4.48620e-04       2.99039e+02
  9.600      2.31538e+02       1.51953e+01      -1.49373e+01       4.44501e-04       2.95377e+02
  9.700      2.30837e+02       1.51805e+01      -1.53315e+01       4.40612e-04       2.91906e+02
  9.800      2.30151e+02       1.51311e+01      -1.56828e+01       4.36921e-04       2.88601e+02
  9.900      2.29478e+02       1.50538e+01      -1.59896e+01       4.33402e-04       2.85440e+02
 10.000      2.28817e+02       1.49553e+01      -1.62504e+01       4.30027e-04       2.82401e+02
 10.100      2.28167e+02       1.48421e+01      -1.64635e+01       4.26770e-04       2.79465e+02
 10.200      2.27524e+02       1.47209e+01      -1.66275e+01       4.23605e-04       2.76612e+02
 10.300      2.26889e+02       1.45985e+01      -1.67407e+01       4.20506e-04       2.73822e+02
 10.400      2.26258e+02       1.44814e+01      -1.68015e+01       4.17452e-04       2.71077e+02
 10.500      2.25631e+02       1.43763e+01      -1.68084e+01       4.14418e-04       2.68361e+02
 10.600      2.25006e+02       1.42898e+01      -1.67598e+01       4.11381e-04       2.65656e+02
 10.700      2.24380e+02       1.42287e+01      -1.66541e+01       4.08321e-04       2.62947e+02
 10.800      2.23753e+02       1.41995e+01      -1.64898e+01       4.05215e-04       2.60217e+02
 10.900      2.23122e+02       1.42089e+01      -1.62652e+01       4.02044e-04       2.57453e+02
 11.000      2.22486e+02       1.42636e+01      -1.59789e+01       3.98787e-04       2.54639e+02
 11.100      2.21843e+02       1.43702e+01      -1.56291e+01       3.95426e-04       2.51764e+02
 11.200      2.21192e+02       1.45353e+01      -1.52145e+01       3.91944e-04       2.48814e+02
 11.300      2.20533e+02       1.47602e+01      -1.47379e+01       3.88328e-04       2.45784e+02
 11.400      2.19870e+02       1.50398e+01      -1.42076e+01       3.84575e-04       2.42678e+02
 11.500      2.19208e+02       1.53682e+01      -1.36326e+01       3.80684e-04       2.39498e+02
 11.600      2.18549e+02       1.57399e+01      -1.30214e+01       3.76651e-04       2.36249e+02
 11.700      2.17899e+02       1.61492e+01      -1.23830e+01       3.72475e-04       2.32935e+02
 11.800      2.17262e+02       1.65902e+01      -1.17261e+01       3.68155e-04       2.29560e+02
 11.900      2.16641e+02       1.70574e+01      -1.10595e+01       3.63690e-04       2.26128e+02
 12.000      2.16041e+02       1.75451e+01      -1.03919e+01       3.59079e-04       2.22643e+02
 12.100      2.15466e+02       1.80476e+01      -9.73227e+00       3.54322e-04       2.19108e+02
 12.200      2.14919e+02       1.85591e+01      -9.08923e+00       3.49419e-04       2.15528e+02
 12.300      2.14406e+02       1.90740e+01      -8.47162e+00       3.44372e-04       2.11907e+02
 12.400      2.13929e+02       1.95865e+01      -7.88821e+00       3.39181e-04       2.08249e+02
 12.500      2.13493e+02       2.00911e+01      -7.34778e+00       3.33849e-04       2.04558e+02
 12.600      2.13103e+02       2.05819e+01      -6.85913e+00       3.28379e-04       2.00838e+02
 12.700      2.12761e+02       2.10538e+01      -6.43002e+00       3.22774e-04       1.97093e+02
 12.800      2.12465e+02       2.15042e+01      -6.06014e+00       3.17061e-04       1.93336e+02
 12.900      2.12210e+02       2.19323e+01      -5.74530e+00       3.11274e-04       1.89579e+02
 13.000      2.11991e+02       2.23371e+01      -5.48129e+00       3.05442e-04       1.85835e+02
 13.100      2.11802e+02       2.27177e+01      -5.26388e+00       2.99598e-04       1.82117e+02
 13.200      2.11638e+02       2.30731e+01      -5.08888e+00       2.93767e-04       1.78435e+02
 13.300      2.11495e+02       2.34024e+01      -4.95207e+00       2.87977e-04       1.74799e+02
 13.400      2.11366e+02       2.37047e+01      -4.84923e+00       2.82252e-04       1.71220e+02
 13.500      2.11247e+02       2.39790e+01      -4.77614e+00       2.76613e-04       1.67705e+02
 13.600      2.11133e+02       2.42244e+01      -4.72860e+00       2.71082e-04       1.64262e+02
 13.700      2.11017e+02       2.44399e+01      -4.70239e+00       2.65678e-04       1.60900e+02
 13.800      2.10896e+02       2.46246e+01      -4.69330e+00       2.60418e-04       1.57623e+02
 13.900      2.10763e+02       2.47776e+01      -4.69711e+00       2.55317e-04       1.54439e+02
 14.000      2.10614e+02       2.48980e+01      -4.70962e+00       2.50390e-04       1.51351e+02
 14.100      2.10444e+02       2.49847e+01      -4.72671e+00       2.45650e-04       1.48366e+02
 14.200      2.10251e+02       2.50382e+01      -4.74634e+00       2.41095e-04       1.45481e+02
 14.300      2.10037e+02       2.50597e+01      -4.76825e+00       2.36714e-04       1.42693e+02
 14.400      2.09805e+02       2.50505e+01      -4.79224e+00       2.32495e-04       1.39995e+02
 14.500      2.09558e+02       2.50119e+01      -4.81811e+00       2.28427e-04       1.37383e+02
 14.600      2.09297e+02       2.49452e+01      -4.84567e+00       2.24501e-04       1.34853e+02
 14.700      2.09024e+02       2.48517e+01      -4.87471e+00       2.20706e-04       1.32401e+02
 14.800      2.08742e+02       2.47328e+01      -4.90503e+00       2.17034e-04       1.30023e+02
 14.900      2.08453e+02       2.45897e+01      -4.93645e+00       2.13475e-04       1.27714e+02
 15.000      2.08160e+02       2.44237e+01      -4.96875e+00       2.10023e-04       1.25472e+02
 15.100      2.07865e+02       2.42362e+01      -5.00175e+00       2.06668e-04       1.23292e+02
 15.200      2.07569e+02       2.40284e+01      -5.03524e+00       2.03403e-04       1.21172e+02
 15.300      2.07276e+02       2.38017e+01      -5.06902e+00       2.00222e-04       1.19109e+02
 15.400      2.06987e+02       2.35574e+01      -5.10289e+00       1.97118e-04       1.17099e+02
 15.500      2.06705e+02       2.32968e+01      -5.13667e+00       1.94085e-04       1.15140e+02
 15.600      2.06432e+02       2.30211e+01      -5.17014e+00       1.91116e-04       1.13228e+02
 15.700      2.06170e+02       2.27317e+01      -5.20311e+00       1.88206e-04       1.11363e+02
 15.800      2.05922e+02       2.24299e+01      -5.23538e+00       1.85349e-04       1.09540e+02
 15.900      2.05690e+02       2.21171e+01      -5.26675e+00       1.82540e-04       1.07759e+02
 16.000      2.05476e+02       2.17944e+01      -5.29703e+00       1.79775e-04       1.06016e+02
 16.100      2.05282e+02       2.14633e+01      -5.32602e+00       1.77048e-04       1.04309e+02
 16.200      2.05111e+02       2.11250e+01      -5.35351e+00       1.74355e-04       1.02637e+02
 16.300      2.04964e+02       2.07808e+01      -5.37930e+00       1.71693e-04       1.00998e+02
 16.400      2.04845e+02       2.04320e+01      -5.40321e+00       1.69057e-04       9.93898e+01
 16.500      2.04754e+02       2.00795e+01      -5.42505e+00       1.66445e-04       9.78108e+01
 16.600      2.04690e+02       1.97236e+01      -5.44465e+00       1.63858e-04       9.62600e+01
 16.700      2.04651e+02       1.93645e+01      -5.46186e+00       1.61295e-04       9.47365e+01
 16.800      2.04637e+02       1.90023e+01      -5.47652e+00       1.58757e-04       9.32392e+01
 16.900      2.04645e+02       1.86373e+01      -5.48846e+00       1.56244e-04       9.17673e+01
 17.000      2.04676e+02       1.82697e+01      -5.49753e+00       1.53757e-04       9.03198e+01
 17.100      2.04727e+02       1.78998e+01      -5.50357e+00       1.51295e-04       8.88958e+01
 17.200      2.04797e+02       1.75277e+01      -5.50642e+00       1.48859e-04       8.74946e+01
 17.300      2.04885e+02       1.71536e+01      -5.50592e+00       1.46450e-04       8.61153e+01
 17.400      2.04990e+02       1.67779e+01      -5.50191e+00       1.44066e-04       8.47571e+01
 17.500      2.05110e+02       1.64006e+01      -5.49423e+00       1.41709e-04       8.34194e+01
 17.600      2.05244e+02       1.60220e+01      -5.48271e+00       1.39379e-04       8.21013e+01
 17.700      2.05392e+02       1.56424e+01      -5.46721e+00       1.37075e-04       8.08024e+01
 17.800      2.05551e+02       1.52619e+01      -5.44756e+00       1.34799e-04       7.95219e+01
 17.900      2.05720e+02       1.48807e+01      -5.42360e+00       1.32549e-04       7.82591e+01
 18.000      2.05899e+02       1.44991e+01      -5.39517e+00       1.30326e-04       7.70135e+01
 18.100      2.06085e+02       1.41173e+01      -5.36211e+00       1.28130e-04       7.57846e+01
 18.200      2.06278e+02       1.37355e+01      -5.32427e+00       1.25962e-04       7.45718e+01
 18.300      2.06476e+02       1.33539e+01      -5.28148e+00       1.23821e-04       7.33746e+01
 18.400      2.06679e+02       1.29728e+01      -5.23358e+00       1.21707e-04       7.21925e+01
 18.500      2.06884e+02       1.25923e+01      -5.18041e+00       1.19620e-04       7.10250e+01
 18.600      2.07090e+02       1.22127e+01      -5.12182e+00       1.17560e-04       6.98717e+01
 18.700      2.07298e+02       1.18343e+01      -5.05773e+00       1.15528e-04       6.87324e+01
 18.800      2.07505e+02       1.14577e+01      -4.98831e+00       1.13523e-04       6.76074e+01
 18.900      2.07712e+02       1.10837e+01      -4.91377e+00       1.11547e-04       6.64970e+01
 19.000      2.07919e+02       1.07130e+01      -4.83433e+00       1.09600e-04       6.54015e+01
 19.100      2.08125e+02       1.03464e+01      -4.75020e+00       1.07683e-04       6.43214e+01
 19.200      2.08331e+02       9.98446e+00      -4.66160e+00       1.05797e-04       6.32568e+01
 19.300      2.08536e+02       9.62801e+00      -4.56874e+00       1.03941e-04       6.22081e+01
 19.400      2.08739e+02       9.27773e+00      -4.47183e+00       1.02116e-04       6.11755e+01
 19.500      2.08941e+02       8.93436e+00      -4.37109e+00       1.00322e-04       6.01590e+01
 19.600      2.09141e+02       8.59861e+00      -4.26673e+00       9.85597e-05       5.91590e+01
 19.700      2.09340e+02       8.27121e+00      -4.15896e+00       9.68294e-05       5.81756e+01
 19.800      2.09536e+02       7.95287e+00      -4.04801e+00       9.51312e-05       5.72089e+01
 19.900      2.09730e+02       7.64432e+00      -3.93408e+00       9.34650e-05       5.62590e+01
 20.000      2.09922e+02       7.34627e+00      -3.81738e+00       9.18311e-05       5.53259e+01
 20.100      2.10110e+02       7.05944e+00      -3.69814e+00       9.02294e-05       5.44098e+01
 20.200      2.10296e+02       6.78456e+00      -3.57657e+00       8.86600e-05       5.35107e+01
 20.300      2.10478e+02       6.52236e+00      -3.45287e+00       8.71230e-05       5.26286e+01
