# Data Source: NASA GEOS5 Near-Real-Time
# Model Time = 2011-08-04 18:00:00
# Location = [  39.1026,  -84.5123 ]
# Fields = [ Z(km), T(K), U(m/s), V(m/s), R(g/cm3), P(mbar) ]
# Ground Height = 0.165
  0.000      3.04237e+02      -2.62147e-01      -1.18458e+00       1.15965e-03       1.01257e+03
  0.100      3.03509e+02      -2.88251e-01      -1.21992e+00       1.14929e-03       1.00111e+03
  0.200      3.02789e+02      -3.13616e-01      -1.25423e+00       1.13899e-03       9.89788e+02
  0.300      3.01988e+02      -3.45799e-01      -1.29803e+00       1.12913e-03       9.78620e+02
  0.400      3.01026e+02      -3.90894e-01      -1.36098e+00       1.12002e-03       9.67633e+02
  0.500      2.99945e+02      -4.38291e-01      -1.44312e+00       1.11146e-03       9.56796e+02
  0.600      2.98860e+02      -4.66964e-01      -1.53842e+00       1.10297e-03       9.46045e+02
  0.700      2.97820e+02      -4.64672e-01      -1.64240e+00       1.09431e-03       9.35351e+02
  0.800      2.96781e+02      -4.31824e-01      -1.75297e+00       1.08568e-03       9.24739e+02
  0.900      2.95706e+02      -3.70734e-01      -1.86765e+00       1.07724e-03       9.14226e+02
  1.000      2.94609e+02      -2.87251e-01      -1.98186e+00       1.06892e-03       9.03802e+02
  1.100      2.93518e+02      -1.88744e-01      -2.09129e+00       1.06061e-03       8.93452e+02
  1.200      2.92459e+02      -9.17165e-02      -2.20157e+00       1.05220e-03       8.83176e+02
  1.300      2.91461e+02      -1.90846e-02      -2.32529e+00       1.04363e-03       8.72984e+02
  1.400      2.90537e+02       1.31297e-02      -2.47058e+00       1.03483e-03       8.62882e+02
  1.500      2.89670e+02       4.64986e-03      -2.63525e+00       1.02588e-03       8.52867e+02
  1.600      2.88849e+02      -3.57131e-02      -2.81755e+00       1.01681e-03       8.42935e+02
  1.700      2.88161e+02      -3.04183e-02      -3.03442e+00       1.00734e-03       8.33091e+02
  1.800      2.87752e+02       1.37145e-01      -3.31342e+00       9.96964e-04       8.23340e+02
  1.900      2.87719e+02       5.33998e-01      -3.67336e+00       9.85394e-04       8.13692e+02
  2.000      2.88050e+02       1.10595e+00      -4.11165e+00       9.72721e-04       8.04151e+02
  2.100      2.88708e+02       1.78063e+00      -4.62002e+00       9.59126e-04       7.94724e+02
  2.200      2.89515e+02       2.48235e+00      -5.14685e+00       9.45248e-04       7.85414e+02
  2.300      2.90171e+02       3.13259e+00      -5.60352e+00       9.32072e-04       7.76222e+02
  2.400      2.90420e+02       3.66262e+00      -5.91489e+00       9.20387e-04       7.67146e+02
  2.500      2.90279e+02       4.06294e+00      -6.09376e+00       9.10071e-04       7.58179e+02
  2.600      2.89870e+02       4.34607e+00      -6.18559e+00       9.00697e-04       7.49313e+02
  2.700      2.89299e+02       4.52735e+00      -6.22736e+00       8.91909e-04       7.40540e+02
  2.800      2.88621e+02       4.63101e+00      -6.22901e+00       8.83516e-04       7.31854e+02
  2.900      2.87883e+02       4.68298e+00      -6.19514e+00       8.75367e-04       7.23250e+02
  3.000      2.87123e+02       4.70098e+00      -6.12991e+00       8.67341e-04       7.14725e+02
  3.100      2.86359e+02       4.68458e+00      -6.03646e+00       8.59376e-04       7.06279e+02
  3.200      2.85610e+02       4.63097e+00      -5.91786e+00       8.51418e-04       6.97909e+02
  3.300      2.84890e+02       4.54043e+00      -5.77833e+00       8.43430e-04       6.89617e+02
  3.400      2.84205e+02       4.41929e+00      -5.62450e+00       8.35393e-04       6.81404e+02
  3.500      2.83561e+02       4.27454e+00      -5.46321e+00       8.27296e-04       6.73269e+02
  3.600      2.82959e+02       4.11107e+00      -5.29987e+00       8.19134e-04       6.65214e+02
  3.700      2.82395e+02       3.92917e+00      -5.13677e+00       8.10931e-04       6.57239e+02
  3.800      2.81860e+02       3.72857e+00      -4.97580e+00       8.02710e-04       6.49344e+02
  3.900      2.81354e+02       3.51437e+00      -4.81895e+00       7.94477e-04       6.41529e+02
  4.000      2.80894e+02       3.30846e+00      -4.66860e+00       7.86186e-04       6.33797e+02
  4.100      2.80503e+02       3.13602e+00      -4.52719e+00       7.77781e-04       6.26148e+02
  4.200      2.80194e+02       3.01948e+00      -4.39771e+00       7.69233e-04       6.18583e+02
  4.300      2.79918e+02       2.96407e+00      -4.28658e+00       7.60676e-04       6.11100e+02
  4.400      2.79606e+02       2.96828e+00      -4.20155e+00       7.52299e-04       6.03697e+02
  4.500      2.79190e+02       3.03014e+00      -4.14998e+00       7.44278e-04       5.96372e+02
  4.600      2.78653e+02       3.13754e+00      -4.12956e+00       7.36648e-04       5.89123e+02
  4.700      2.78033e+02       3.26810e+00      -4.12825e+00       7.29302e-04       5.81950e+02
  4.800      2.77369e+02       3.39897e+00      -4.13356e+00       7.22133e-04       5.74853e+02
  4.900      2.76690e+02       3.51312e+00      -4.13555e+00       7.15060e-04       5.67830e+02
  5.000      2.75993e+02       3.61522e+00      -4.13377e+00       7.08090e-04       5.60879e+02
  5.100      2.75265e+02       3.71507e+00      -4.12998e+00       7.01248e-04       5.53993e+02
  5.200      2.74493e+02       3.82217e+00      -4.12582e+00       6.94559e-04       5.47169e+02
  5.300      2.73684e+02       3.93512e+00      -4.11831e+00       6.88002e-04       5.40407e+02
  5.400      2.72867e+02       4.03900e+00      -4.09871e+00       6.81508e-04       5.33707e+02
  5.500      2.72071e+02       4.11803e+00      -4.05789e+00       6.75003e-04       5.27072e+02
  5.600      2.71326e+02       4.15820e+00      -3.98716e+00       6.68422e-04       5.20504e+02
  5.700      2.70633e+02       4.16447e+00      -3.88225e+00       6.61764e-04       5.14003e+02
  5.800      2.69978e+02       4.15343e+00      -3.74160e+00       6.55064e-04       5.07568e+02
  5.900      2.69347e+02       4.14188e+00      -3.56370e+00       6.48356e-04       5.01197e+02
  6.000      2.68728e+02       4.14462e+00      -3.34782e+00       6.41673e-04       4.94891e+02
  6.100      2.68115e+02       4.16250e+00      -3.09884e+00       6.35027e-04       4.88648e+02
  6.200      2.67508e+02       4.19029e+00      -2.82406e+00       6.28423e-04       4.82469e+02
  6.300      2.66903e+02       4.22274e+00      -2.53081e+00       6.21864e-04       4.76356e+02
  6.400      2.66302e+02       4.25577e+00      -2.22552e+00       6.15356e-04       4.70307e+02
  6.500      2.65704e+02       4.29470e+00      -1.90754e+00       6.08893e-04       4.64323e+02
  6.600      2.65113e+02       4.34936e+00      -1.57282e+00       6.02470e-04       4.58403e+02
  6.700      2.64531e+02       4.42959e+00      -1.21731e+00       5.96080e-04       4.52545e+02
  6.800      2.63961e+02       4.54471e+00      -8.37355e-01       5.89717e-04       4.46750e+02
  6.900      2.63403e+02       4.69466e+00      -4.36678e-01       5.83380e-04       4.41015e+02
  7.000      2.62856e+02       4.87144e+00      -2.52312e-02       5.77074e-04       4.35343e+02
  7.100      2.62319e+02       5.06679e+00       3.86829e-01       5.70803e-04       4.29732e+02
  7.200      2.61790e+02       5.27244e+00       7.89351e-01       5.64571e-04       4.24182e+02
  7.300      2.61266e+02       5.48083e+00       1.17496e+00       5.58384e-04       4.18694e+02
  7.400      2.60739e+02       5.68618e+00       1.54346e+00       5.52259e-04       4.13267e+02
  7.500      2.60201e+02       5.88298e+00       1.89580e+00       5.46213e-04       4.07899e+02
  7.600      2.59643e+02       6.06576e+00       2.23293e+00       5.40263e-04       4.02591e+02
  7.700      2.59057e+02       6.22914e+00       2.55571e+00       5.34423e-04       3.97340e+02
  7.800      2.58439e+02       6.37083e+00       2.86325e+00       5.28698e-04       3.92146e+02
  7.900      2.57793e+02       6.49155e+00       3.15290e+00       5.23079e-04       3.87008e+02
  8.000      2.57121e+02       6.59212e+00       3.42198e+00       5.17557e-04       3.81924e+02
  8.100      2.56425e+02       6.67338e+00       3.66777e+00       5.12125e-04       3.76893e+02
  8.200      2.55709e+02       6.73599e+00       3.88773e+00       5.06775e-04       3.71914e+02
  8.300      2.54976e+02       6.77828e+00       4.08154e+00       5.01497e-04       3.66987e+02
  8.400      2.54232e+02       6.79689e+00       4.25048e+00       4.96281e-04       3.62110e+02
  8.500      2.53482e+02       6.78841e+00       4.39587e+00       4.91118e-04       3.57285e+02
  8.600      2.52730e+02       6.74944e+00       4.51904e+00       4.85996e-04       3.52510e+02
  8.700      2.51982e+02       6.67664e+00       4.62128e+00       4.80908e-04       3.47786e+02
  8.800      2.51237e+02       6.56878e+00       4.70316e+00       4.75851e-04       3.43112e+02
  8.900      2.50492e+02       6.42687e+00       4.76446e+00       4.70834e-04       3.38488e+02
  9.000      2.49743e+02       6.25203e+00       4.80495e+00       4.65863e-04       3.33913e+02
  9.100      2.48985e+02       6.04538e+00       4.82436e+00       4.60947e-04       3.29386e+02
  9.200      2.48214e+02       5.80805e+00       4.82244e+00       4.56091e-04       3.24907e+02
  9.300      2.47427e+02       5.54350e+00       4.79770e+00       4.51301e-04       3.20475e+02
  9.400      2.46627e+02       5.26397e+00       4.74390e+00       4.46569e-04       3.16090e+02
  9.500      2.45818e+02       4.98377e+00       4.65371e+00       4.41888e-04       3.11751e+02
  9.600      2.45004e+02       4.71721e+00       4.51981e+00       4.37250e-04       3.07458e+02
  9.700      2.44190e+02       4.47861e+00       4.33487e+00       4.32647e-04       3.03210e+02
  9.800      2.43379e+02       4.28225e+00       4.09160e+00       4.28072e-04       2.99007e+02
  9.900      2.42573e+02       4.13899e+00       3.78939e+00       4.23520e-04       2.94848e+02
 10.000      2.41771e+02       4.05281e+00       3.44107e+00       4.18995e-04       2.90734e+02
 10.100      2.40970e+02       4.02685e+00       3.06105e+00       4.14501e-04       2.86663e+02
 10.200      2.40169e+02       4.06427e+00       2.66376e+00       4.10042e-04       2.82636e+02
 10.300      2.39363e+02       4.16823e+00       2.26362e+00       4.05623e-04       2.78651e+02
 10.400      2.38552e+02       4.34186e+00       1.87506e+00       4.01246e-04       2.74710e+02
 10.500      2.37733e+02       4.58276e+00       1.50900e+00       3.96913e-04       2.70811e+02
 10.600      2.36908e+02       4.87064e+00       1.16518e+00       3.92622e-04       2.66954e+02
 10.700      2.36081e+02       5.18163e+00       8.41114e-01       3.88368e-04       2.63140e+02
 10.800      2.35253e+02       5.49186e+00       5.34274e-01       3.84147e-04       2.59367e+02
 10.900      2.34427e+02       5.77749e+00       2.42166e-01       3.79955e-04       2.55636e+02
 11.000      2.33606e+02       6.01464e+00      -3.77200e-02       3.75787e-04       2.51946e+02
 11.100      2.32792e+02       6.18014e+00      -3.07777e-01       3.71639e-04       2.48297e+02
 11.200      2.31985e+02       6.26891e+00      -5.67456e-01       3.67513e-04       2.44690e+02
 11.300      2.31183e+02       6.29563e+00      -8.13023e-01       3.63412e-04       2.41122e+02
 11.400      2.30382e+02       6.27593e+00      -1.04057e+00       3.59340e-04       2.37595e+02
 11.500      2.29581e+02       6.22545e+00      -1.24620e+00       3.55301e-04       2.34107e+02
 11.600      2.28776e+02       6.15985e+00      -1.42600e+00       3.51299e-04       2.30659e+02
 11.700      2.27965e+02       6.09476e+00      -1.57608e+00       3.47338e-04       2.27249e+02
 11.800      2.27145e+02       6.04566e+00      -1.69263e+00       3.43420e-04       2.23878e+02
 11.900      2.26314e+02       6.01783e+00      -1.77785e+00       3.39550e-04       2.20544e+02
 12.000      2.25471e+02       6.00082e+00      -1.84318e+00       3.35726e-04       2.17248e+02
 12.100      2.24615e+02       5.98282e+00      -1.90086e+00       3.31950e-04       2.13989e+02
 12.200      2.23745e+02       5.95201e+00      -1.96315e+00       3.28221e-04       2.10767e+02
 12.300      2.22862e+02       5.89657e+00      -2.04229e+00       3.24540e-04       2.07580e+02
 12.400      2.21962e+02       5.80470e+00      -2.15052e+00       3.20908e-04       2.04429e+02
 12.500      2.21047e+02       5.66458e+00      -2.30009e+00       3.17325e-04       2.01313e+02
 12.600      2.20115e+02       5.46558e+00      -2.50242e+00       3.13790e-04       1.98231e+02
 12.700      2.19172e+02       5.21656e+00      -2.75521e+00       3.10298e-04       1.95184e+02
 12.800      2.18225e+02       4.94236e+00      -3.04492e+00       3.06834e-04       1.92172e+02
 12.900      2.17284e+02       4.66833e+00      -3.35766e+00       3.03388e-04       1.89194e+02
 13.000      2.16358e+02       4.41980e+00      -3.67953e+00       2.99948e-04       1.86251e+02
 13.100      2.15456e+02       4.22211e+00      -3.99667e+00       2.96501e-04       1.83344e+02
 13.200      2.14587e+02       4.10059e+00      -4.29518e+00       2.93037e-04       1.80471e+02
 13.300      2.13760e+02       4.08057e+00      -4.56118e+00       2.89546e-04       1.77634e+02
 13.400      2.12984e+02       4.18739e+00      -4.78078e+00       2.86016e-04       1.74831e+02
 13.500      2.12264e+02       4.43568e+00      -4.94444e+00       2.82443e-04       1.72064e+02
 13.600      2.11595e+02       4.80440e+00      -5.05704e+00       2.78837e-04       1.69332e+02
 13.700      2.10967e+02       5.26504e+00      -5.12651e+00       2.75212e-04       1.66634e+02
 13.800      2.10372e+02       5.78913e+00      -5.16075e+00       2.71580e-04       1.63971e+02
 13.900      2.09801e+02       6.34817e+00      -5.16767e+00       2.67953e-04       1.61343e+02
 14.000      2.09246e+02       6.91368e+00      -5.15518e+00       2.64345e-04       1.58749e+02
 14.100      2.08698e+02       7.45716e+00      -5.13120e+00       2.60765e-04       1.56189e+02
 14.200      2.08148e+02       7.95013e+00      -5.10362e+00       2.57226e-04       1.53662e+02
 14.300      2.07587e+02       8.36411e+00      -5.08037e+00       2.53737e-04       1.51170e+02
 14.400      2.07007e+02       8.67156e+00      -5.06904e+00       2.50308e-04       1.48711e+02
 14.500      2.06410e+02       8.86485e+00      -5.07071e+00       2.46937e-04       1.46285e+02
 14.600      2.05806e+02       8.95491e+00      -5.08040e+00       2.43611e-04       1.43892e+02
 14.700      2.05205e+02       8.95337e+00      -5.09291e+00       2.40316e-04       1.41531e+02
 14.800      2.04617e+02       8.87188e+00      -5.10300e+00       2.37042e-04       1.39203e+02
 14.900      2.04054e+02       8.72206e+00      -5.10546e+00       2.33775e-04       1.36907e+02
 15.000      2.03526e+02       8.51556e+00      -5.09509e+00       2.30505e-04       1.34642e+02
 15.100      2.03043e+02       8.26402e+00      -5.06665e+00       2.27221e-04       1.32409e+02
 15.200      2.02616e+02       7.97908e+00      -5.01494e+00       2.23912e-04       1.30207e+02
 15.300      2.02255e+02       7.67237e+00      -4.93473e+00       2.20571e-04       1.28035e+02
 15.400      2.01971e+02       7.35554e+00      -4.82082e+00       2.17187e-04       1.25894e+02
 15.500      2.01774e+02       7.03983e+00      -4.66831e+00       2.13754e-04       1.23783e+02
 15.600      2.01664e+02       6.73036e+00      -4.47771e+00       2.10277e-04       1.21703e+02
 15.700      2.01633e+02       6.42717e+00      -4.25395e+00       2.06769e-04       1.19655e+02
 15.800      2.01673e+02       6.13020e+00      -4.00207e+00       2.03246e-04       1.17639e+02
 15.900      2.01775e+02       5.83936e+00      -3.72709e+00       1.99719e-04       1.15656e+02
 16.000      2.01932e+02       5.55456e+00      -3.43408e+00       1.96202e-04       1.13708e+02
 16.100      2.02136e+02       5.27573e+00      -3.12806e+00       1.92707e-04       1.11795e+02
 16.200      2.02378e+02       5.00278e+00      -2.81408e+00       1.89244e-04       1.09918e+02
 16.300      2.02649e+02       4.73565e+00      -2.49719e+00       1.85825e-04       1.08076e+02
 16.400      2.02943e+02       4.47422e+00      -2.18242e+00       1.82457e-04       1.06272e+02
 16.500      2.03251e+02       4.21844e+00      -1.87481e+00       1.79150e-04       1.04504e+02
 16.600      2.03564e+02       3.96822e+00      -1.57941e+00       1.75913e-04       1.02774e+02
 16.700      2.03875e+02       3.72347e+00      -1.30127e+00       1.72752e-04       1.01081e+02
 16.800      2.04175e+02       3.48412e+00      -1.04537e+00       1.69675e-04       9.94264e+01
 16.900      2.04460e+02       3.24998e+00      -8.14293e-01       1.66682e-04       9.78091e+01
 17.000      2.04731e+02       3.02076e+00      -6.07018e-01       1.63770e-04       9.62274e+01
 17.100      2.04989e+02       2.79614e+00      -4.22233e-01       1.60933e-04       9.46797e+01
 17.200      2.05234e+02       2.57579e+00      -2.58626e-01       1.58168e-04       9.31645e+01
 17.300      2.05469e+02       2.35941e+00      -1.14886e-01       1.55470e-04       9.16801e+01
 17.400      2.05694e+02       2.14667e+00       1.03022e-02       1.52836e-04       9.02251e+01
 17.500      2.05910e+02       1.93725e+00       1.18250e-01       1.50260e-04       8.87980e+01
 17.600      2.06119e+02       1.73084e+00       2.10269e-01       1.47741e-04       8.73977e+01
 17.700      2.06321e+02       1.52712e+00       2.87671e-01       1.45274e-04       8.60226e+01
 17.800      2.06519e+02       1.32577e+00       3.51768e-01       1.42856e-04       8.46718e+01
 17.900      2.06713e+02       1.12648e+00       4.03874e-01       1.40483e-04       8.33440e+01
 18.000      2.06904e+02       9.28926e-01       4.45301e-01       1.38155e-04       8.20380e+01
 18.100      2.07093e+02       7.32791e-01       4.77361e-01       1.35866e-04       8.07529e+01
 18.200      2.07282e+02       5.37758e-01       5.01365e-01       1.33615e-04       7.94875e+01
 18.300      2.07472e+02       3.43513e-01       5.18626e-01       1.31400e-04       7.82411e+01
 18.400      2.07663e+02       1.49731e-01       5.30456e-01       1.29217e-04       7.70126e+01
 18.500      2.07858e+02      -4.39016e-02       5.38169e-01       1.27065e-04       7.58011e+01
 18.600      2.08057e+02      -2.37702e-01       5.43075e-01       1.24942e-04       7.46059e+01
 18.700      2.08261e+02      -4.31989e-01       5.46487e-01       1.22846e-04       7.34261e+01
 18.800      2.08472e+02      -6.27075e-01       5.49718e-01       1.20774e-04       7.22611e+01
 18.900      2.08691e+02      -8.23286e-01       5.54080e-01       1.18726e-04       7.11100e+01
 19.000      2.08918e+02      -1.02094e+00       5.60884e-01       1.16699e-04       6.99723e+01
 19.100      2.09155e+02      -1.22026e+00       5.71173e-01       1.14693e-04       6.88475e+01
 19.200      2.09401e+02      -1.42119e+00       5.84976e-01       1.12709e-04       6.77359e+01
 19.300      2.09656e+02      -1.62358e+00       6.02090e-01       1.10747e-04       6.66380e+01
 19.400      2.09918e+02      -1.82731e+00       6.22313e-01       1.08810e-04       6.55543e+01
 19.500      2.10187e+02      -2.03222e+00       6.45441e-01       1.06898e-04       6.44850e+01
 19.600      2.10461e+02      -2.23818e+00       6.71270e-01       1.05013e-04       6.34306e+01
 19.700      2.10741e+02      -2.44506e+00       6.99598e-01       1.03156e-04       6.23914e+01
 19.800      2.11024e+02      -2.65270e+00       7.30220e-01       1.01327e-04       6.13676e+01
 19.900      2.11311e+02      -2.86097e+00       7.62933e-01       9.95276e-05       6.03597e+01
 20.000      2.11600e+02      -3.06974e+00       7.97536e-01       9.77583e-05       5.93677e+01
 20.100      2.11890e+02      -3.27886e+00       8.33823e-01       9.60198e-05       5.83920e+01
 20.200      2.12181e+02      -3.48820e+00       8.71591e-01       9.43126e-05       5.74327e+01
 20.300      2.12472e+02      -3.69761e+00       9.10637e-01       9.26374e-05       5.64899e+01
