# Data Source: NASA GEOS5 Near-Real-Time
# Model Time = 2010-07-04 18:00:00
# Location = [  39.7393, -104.9900 ]
# Fields = [ Z(km), T(K), U(m/s), V(m/s), R(g/cm3), P(mbar) ]
# Ground Height = 1.589
  0.000      3.06623e+02       2.95323e-01       2.03126e+00       1.14681e-03       1.00920e+03
  0.100      3.05972e+02       2.78253e-01       1.96940e+00       1.13581e-03       9.97401e+02
  0.200      3.05321e+02       2.62150e-01       1.91527e+00       1.12493e-03       9.85741e+02
  0.300      3.04674e+02       2.51386e-01       1.90383e+00       1.11415e-03       9.74226e+02
  0.400      3.04037e+02       2.49351e-01       1.95337e+00       1.10345e-03       9.62859e+02
  0.500      3.03419e+02       2.56222e-01       2.02782e+00       1.09281e-03       9.51637e+02
  0.600      3.02826e+02       2.70454e-01       2.08544e+00       1.08221e-03       9.40557e+02
  0.700      3.02235e+02       2.83816e-01       2.11864e+00       1.07171e-03       9.29618e+02
  0.800      3.01614e+02       2.86763e-01       2.13351e+00       1.06144e-03       9.18817e+02
  0.900      3.00958e+02       2.90664e-01       2.14461e+00       1.05140e-03       9.08148e+02
  1.000      3.00289e+02       3.24021e-01       2.17342e+00       1.04151e-03       8.97601e+02
  1.100      2.99623e+02       3.98803e-01       2.22951e+00       1.03170e-03       8.87174e+02
  1.200      2.98972e+02       4.91841e-01       2.29751e+00       1.02194e-03       8.76876e+02
  1.300      2.98343e+02       5.76734e-01       2.35887e+00       1.01223e-03       8.66715e+02
  1.400      2.97725e+02       6.34788e-01       2.39447e+00       1.00259e-03       8.56685e+02
  1.500      2.97102e+02       6.50782e-01       2.38520e+00       9.93074e-04       8.46777e+02
  1.600      2.96459e+02       6.20521e-01       2.32657e+00       9.83718e-04       8.36983e+02
  1.700      2.95783e+02       5.57187e-01       2.23721e+00       9.74559e-04       8.27301e+02
  1.800      2.95068e+02       4.72056e-01       2.13928e+00       9.65618e-04       8.17728e+02
  1.900      2.94328e+02       3.47546e-01       2.06723e+00       9.56838e-04       8.08260e+02
  2.000      2.93590e+02       1.51676e-01       2.06172e+00       9.48124e-04       7.98891e+02
  2.100      2.92870e+02      -1.19214e-01       2.15527e+00       9.39418e-04       7.89616e+02
  2.200      2.92156e+02      -3.88842e-01       2.35743e+00       9.30764e-04       7.80436e+02
  2.300      2.91430e+02      -5.68204e-01       2.67277e+00       9.22223e-04       7.71351e+02
  2.400      2.90673e+02      -6.15301e-01       3.06790e+00       9.13847e-04       7.62359e+02
  2.500      2.89868e+02      -5.48721e-01       3.46052e+00       9.05683e-04       7.53456e+02
  2.600      2.88999e+02      -3.90254e-01       3.77013e+00       8.97772e-04       7.44637e+02
  2.700      2.88074e+02      -1.50121e-01       3.98872e+00       8.90088e-04       7.35899e+02
  2.800      2.87113e+02       1.70150e-01       4.16275e+00       8.82560e-04       7.27242e+02
  2.900      2.86142e+02       5.71063e-01       4.33588e+00       8.75110e-04       7.18665e+02
  3.000      2.85207e+02       1.06954e+00       4.51479e+00       8.67598e-04       7.10167e+02
  3.100      2.84361e+02       1.69120e+00       4.68648e+00       8.59857e-04       7.01744e+02
  3.200      2.83653e+02       2.45286e+00       4.83900e+00       8.51749e-04       6.93396e+02
  3.300      2.83058e+02       3.30382e+00       4.96946e+00       8.43358e-04       6.85124e+02
  3.400      2.82520e+02       4.16244e+00       5.07909e+00       8.34861e-04       6.76933e+02
  3.500      2.81987e+02       4.95374e+00       5.16954e+00       8.26422e-04       6.68825e+02
  3.600      2.81428e+02       5.65964e+00       5.24551e+00       8.18128e-04       6.60800e+02
  3.700      2.80825e+02       6.29035e+00       5.31323e+00       8.10026e-04       6.52854e+02
  3.800      2.80162e+02       6.85502e+00       5.37879e+00       8.02157e-04       6.44986e+02
  3.900      2.79442e+02       7.34604e+00       5.44642e+00       7.94505e-04       6.37192e+02
  4.000      2.78682e+02       7.74416e+00       5.51903e+00       7.87015e-04       6.29469e+02
  4.100      2.77899e+02       8.03041e+00       5.59944e+00       7.79635e-04       6.21814e+02
  4.200      2.77103e+02       8.20421e+00       5.68856e+00       7.72336e-04       6.14227e+02
  4.300      2.76293e+02       8.28779e+00       5.78484e+00       7.65120e-04       6.06710e+02
  4.400      2.75469e+02       8.30479e+00       5.88661e+00       7.57990e-04       5.99264e+02
  4.500      2.74631e+02       8.27776e+00       5.99187e+00       7.50946e-04       5.91890e+02
  4.600      2.73781e+02       8.22590e+00       6.09759e+00       7.43985e-04       5.84586e+02
  4.700      2.72918e+02       8.16782e+00       6.20059e+00       7.37100e-04       5.77351e+02
  4.800      2.72043e+02       8.12039e+00       6.29678e+00       7.30286e-04       5.70182e+02
  4.900      2.71157e+02       8.08110e+00       6.37170e+00       7.23544e-04       5.63077e+02
  5.000      2.70257e+02       8.03510e+00       6.40437e+00       7.16878e-04       5.56038e+02
  5.100      2.69343e+02       7.96737e+00       6.37369e+00       7.10290e-04       5.49063e+02
  5.200      2.68415e+02       7.87926e+00       6.27013e+00       7.03776e-04       5.42153e+02
  5.300      2.67485e+02       7.81599e+00       6.11521e+00       6.97304e-04       5.35307e+02
  5.400      2.66566e+02       7.83009e+00       5.93560e+00       6.90840e-04       5.28523e+02
  5.500      2.65671e+02       7.97272e+00       5.75754e+00       6.84352e-04       5.21803e+02
  5.600      2.64811e+02       8.25944e+00       5.59662e+00       6.77814e-04       5.15144e+02
  5.700      2.63993e+02       8.66806e+00       5.45709e+00       6.71212e-04       5.08551e+02
  5.800      2.63225e+02       9.17459e+00       5.34266e+00       6.64530e-04       5.02023e+02
  5.900      2.62513e+02       9.75470e+00       5.25730e+00       6.57757e-04       4.95563e+02
  6.000      2.61852e+02       1.03809e+01       5.20777e+00       6.50911e-04       4.89170e+02
  6.100      2.61229e+02       1.10236e+01       5.20258e+00       6.44027e-04       4.82844e+02
  6.200      2.60630e+02       1.16534e+01       5.25021e+00       6.37138e-04       4.76585e+02
  6.300      2.60044e+02       1.22422e+01       5.35810e+00       6.30276e-04       4.70391e+02
  6.400      2.59463e+02       1.27753e+01       5.52397e+00       6.23459e-04       4.64263e+02
  6.500      2.58882e+02       1.32449e+01       5.74052e+00       6.16697e-04       4.58201e+02
  6.600      2.58299e+02       1.36434e+01       6.00038e+00       6.10002e-04       4.52205e+02
  6.700      2.57707e+02       1.39638e+01       6.29643e+00       6.03384e-04       4.46274e+02
  6.800      2.57104e+02       1.42115e+01       6.62455e+00       5.96850e-04       4.40409e+02
  6.900      2.56486e+02       1.44006e+01       6.98273e+00       5.90407e-04       4.34607e+02
  7.000      2.55849e+02       1.45451e+01       7.36905e+00       5.84059e-04       4.28867e+02
  7.100      2.55191e+02       1.46592e+01       7.78145e+00       5.77812e-04       4.23189e+02
  7.200      2.54511e+02       1.47523e+01       8.20977e+00       5.71664e-04       4.17570e+02
  7.300      2.53816e+02       1.48260e+01       8.63089e+00       5.65598e-04       4.12012e+02
  7.400      2.53112e+02       1.48813e+01       9.02051e+00       5.59600e-04       4.06512e+02
  7.500      2.52407e+02       1.49193e+01       9.35432e+00       5.53655e-04       4.01071e+02
  7.600      2.51704e+02       1.49413e+01       9.61172e+00       5.47748e-04       3.95688e+02
  7.700      2.51002e+02       1.49516e+01       9.79923e+00       5.41887e-04       3.90362e+02
  7.800      2.50294e+02       1.49556e+01       9.93545e+00       5.36084e-04       3.85094e+02
  7.900      2.49575e+02       1.49589e+01       1.00390e+01       5.30353e-04       3.79881e+02
  8.000      2.48836e+02       1.49668e+01       1.01287e+01       5.24706e-04       3.74724e+02
  8.100      2.48075e+02       1.49861e+01       1.02219e+01       5.19149e-04       3.69622e+02
  8.200      2.47297e+02       1.50266e+01       1.03321e+01       5.13671e-04       3.64574e+02
  8.300      2.46507e+02       1.50993e+01       1.04721e+01       5.08257e-04       3.59580e+02
  8.400      2.45714e+02       1.52150e+01       1.06546e+01       5.02893e-04       3.54639e+02
  8.500      2.44923e+02       1.53846e+01       1.08923e+01       4.97563e-04       3.49751e+02
  8.600      2.44141e+02       1.56132e+01       1.11924e+01       4.92254e-04       3.44915e+02
  8.700      2.43376e+02       1.58871e+01       1.15444e+01       4.86953e-04       3.40130e+02
  8.800      2.42633e+02       1.61881e+01       1.19336e+01       4.81647e-04       3.35399e+02
  8.900      2.41922e+02       1.64982e+01       1.23452e+01       4.76325e-04       3.30720e+02
  9.000      2.41248e+02       1.67994e+01       1.27647e+01       4.70975e-04       3.26094e+02
  9.100      2.40616e+02       1.70760e+01       1.31781e+01       4.65588e-04       3.21521e+02
  9.200      2.40019e+02       1.73317e+01       1.35777e+01       4.60184e-04       3.17000e+02
  9.300      2.39441e+02       1.75800e+01       1.39585e+01       4.54792e-04       3.12531e+02
  9.400      2.38866e+02       1.78345e+01       1.43160e+01       4.49443e-04       3.08114e+02
  9.500      2.38279e+02       1.81087e+01       1.46453e+01       4.44166e-04       3.03747e+02
  9.600      2.37664e+02       1.84161e+01       1.49417e+01       4.38987e-04       2.99431e+02
  9.700      2.37014e+02       1.87650e+01       1.52070e+01       4.33919e-04       2.95164e+02
  9.800      2.36344e+02       1.91491e+01       1.54612e+01       4.28931e-04       2.90947e+02
  9.900      2.35674e+02       1.95598e+01       1.57271e+01       4.23989e-04       2.86779e+02
 10.000      2.35023e+02       1.99887e+01       1.60276e+01       4.19058e-04       2.82662e+02
 10.100      2.34411e+02       2.04270e+01       1.63854e+01       4.14106e-04       2.78594e+02
 10.200      2.33856e+02       2.08663e+01       1.68234e+01       4.09102e-04       2.74575e+02
 10.300      2.33372e+02       2.13017e+01       1.73587e+01       4.04025e-04       2.70606e+02
 10.400      2.32953e+02       2.17393e+01       1.79909e+01       3.98890e-04       2.66687e+02
 10.500      2.32591e+02       2.21872e+01       1.87168e+01       3.93715e-04       2.62818e+02
 10.600      2.32277e+02       2.26537e+01       1.95330e+01       3.88518e-04       2.58999e+02
 10.700      2.32002e+02       2.31467e+01       2.04363e+01       3.83316e-04       2.55230e+02
 10.800      2.31759e+02       2.36744e+01       2.14232e+01       3.78127e-04       2.51510e+02
 10.900      2.31538e+02       2.42445e+01       2.24895e+01       3.72965e-04       2.47841e+02
 11.000      2.31334e+02       2.48591e+01       2.36164e+01       3.67843e-04       2.44221e+02
 11.100      2.31143e+02       2.55157e+01       2.47736e+01       3.62765e-04       2.40652e+02
 11.200      2.30961e+02       2.62115e+01       2.59305e+01       3.57741e-04       2.37131e+02
 11.300      2.30784e+02       2.69440e+01       2.70564e+01       3.52774e-04       2.33660e+02
 11.400      2.30608e+02       2.77105e+01       2.81206e+01       3.47873e-04       2.30237e+02
 11.500      2.30429e+02       2.85084e+01       2.90927e+01       3.43041e-04       2.26864e+02
 11.600      2.30244e+02       2.93347e+01       2.99423e+01       3.38284e-04       2.23538e+02
 11.700      2.30046e+02       3.01784e+01       3.06527e+01       3.33610e-04       2.20260e+02
 11.800      2.29827e+02       3.10190e+01       3.12228e+01       3.29028e-04       2.17028e+02
 11.900      2.29578e+02       3.18354e+01       3.16524e+01       3.24547e-04       2.13841e+02
 12.000      2.29291e+02       3.26065e+01       3.19411e+01       3.20175e-04       2.10696e+02
 12.100      2.28956e+02       3.33115e+01       3.20889e+01       3.15921e-04       2.07593e+02
 12.200      2.28565e+02       3.39291e+01       3.20953e+01       3.11793e-04       2.04530e+02
 12.300      2.28110e+02       3.44383e+01       3.19603e+01       3.07797e-04       2.01507e+02
 12.400      2.27582e+02       3.48189e+01       3.16839e+01       3.03940e-04       1.98521e+02
 12.500      2.26982e+02       3.50690e+01       3.12740e+01       3.00217e-04       1.95572e+02
 12.600      2.26320e+02       3.52054e+01       3.07465e+01       2.96609e-04       1.92659e+02
 12.700      2.25608e+02       3.52457e+01       3.01178e+01       2.93101e-04       1.89781e+02
 12.800      2.24856e+02       3.52075e+01       2.94039e+01       2.89674e-04       1.86937e+02
 12.900      2.24075e+02       3.51082e+01       2.86212e+01       2.86312e-04       1.84126e+02
 13.000      2.23277e+02       3.49656e+01       2.77858e+01       2.83001e-04       1.81348e+02
 13.100      2.22471e+02       3.47971e+01       2.69140e+01       2.79724e-04       1.78602e+02
 13.200      2.21669e+02       3.46204e+01       2.60221e+01       2.76468e-04       1.75886e+02
 13.300      2.20882e+02       3.44515e+01       2.51259e+01       2.73218e-04       1.73201e+02
 13.400      2.20114e+02       3.42896e+01       2.42380e+01       2.69970e-04       1.70547e+02
 13.500      2.19368e+02       3.41230e+01       2.33687e+01       2.66721e-04       1.67924e+02
 13.600      2.18648e+02       3.39399e+01       2.25282e+01       2.63472e-04       1.65334e+02
 13.700      2.17955e+02       3.37283e+01       2.17269e+01       2.60221e-04       1.62776e+02
 13.800      2.17292e+02       3.34764e+01       2.09750e+01       2.56968e-04       1.60252e+02
 13.900      2.16661e+02       3.31724e+01       2.02828e+01       2.53711e-04       1.57762e+02
 14.000      2.16066e+02       3.28043e+01       1.96606e+01       2.50451e-04       1.55307e+02
 14.100      2.15507e+02       3.23604e+01       1.91187e+01       2.47187e-04       1.52887e+02
 14.200      2.14989e+02       3.18288e+01       1.86672e+01       2.43918e-04       1.50502e+02
 14.300      2.14513e+02       3.11998e+01       1.83147e+01       2.40644e-04       1.48153e+02
 14.400      2.14077e+02       3.04801e+01       1.80547e+01       2.37368e-04       1.45839e+02
 14.500      2.13677e+02       2.96843e+01       1.78739e+01       2.34091e-04       1.43557e+02
 14.600      2.13311e+02       2.88268e+01       1.77590e+01       2.30817e-04       1.41307e+02
 14.700      2.12975e+02       2.79222e+01       1.76968e+01       2.27549e-04       1.39087e+02
 14.800      2.12665e+02       2.69850e+01       1.76739e+01       2.24290e-04       1.36895e+02
 14.900      2.12378e+02       2.60297e+01       1.76771e+01       2.21042e-04       1.34730e+02
 15.000      2.12111e+02       2.50708e+01       1.76931e+01       2.17807e-04       1.32592e+02
 15.100      2.11860e+02       2.41228e+01       1.77085e+01       2.14589e-04       1.30478e+02
 15.200      2.11621e+02       2.32003e+01       1.77101e+01       2.11389e-04       1.28388e+02
 15.300      2.11391e+02       2.23176e+01       1.76845e+01       2.08211e-04       1.26320e+02
 15.400      2.11168e+02       2.14894e+01       1.76187e+01       2.05055e-04       1.24274e+02
 15.500      2.10948e+02       2.07219e+01       1.75060e+01       2.01925e-04       1.22249e+02
 15.600      2.10733e+02       2.00105e+01       1.73498e+01       1.98822e-04       1.20249e+02
 15.700      2.10525e+02       1.93495e+01       1.71538e+01       1.95749e-04       1.18273e+02
 15.800      2.10324e+02       1.87330e+01       1.69221e+01       1.92709e-04       1.16325e+02
 15.900      2.10132e+02       1.81553e+01       1.66586e+01       1.89702e-04       1.14405e+02
 16.000      2.09950e+02       1.76108e+01       1.63673e+01       1.86730e-04       1.12516e+02
 16.100      2.09779e+02       1.70937e+01       1.60520e+01       1.83797e-04       1.10658e+02
 16.200      2.09621e+02       1.65982e+01       1.57169e+01       1.80902e-04       1.08833e+02
 16.300      2.09476e+02       1.61187e+01       1.53657e+01       1.78047e-04       1.07041e+02
 16.400      2.09346e+02       1.56494e+01       1.50024e+01       1.75235e-04       1.05285e+02
 16.500      2.09231e+02       1.51845e+01       1.46310e+01       1.72465e-04       1.03564e+02
 16.600      2.09134e+02       1.47185e+01       1.42554e+01       1.69739e-04       1.01880e+02
 16.700      2.09056e+02       1.42454e+01       1.38797e+01       1.67058e-04       1.00233e+02
 16.800      2.08997e+02       1.37604e+01       1.35072e+01       1.64423e-04       9.86245e+01
 16.900      2.08957e+02       1.32632e+01       1.31392e+01       1.61833e-04       9.70522e+01
 17.000      2.08936e+02       1.27554e+01       1.27760e+01       1.59285e-04       9.55145e+01
 17.100      2.08932e+02       1.22384e+01       1.24177e+01       1.56778e-04       9.40099e+01
 17.200      2.08947e+02       1.17139e+01       1.20647e+01       1.54311e-04       9.25365e+01
 17.300      2.08978e+02       1.11835e+01       1.17171e+01       1.51881e-04       9.10929e+01
 17.400      2.09025e+02       1.06486e+01       1.13752e+01       1.49487e-04       8.96776e+01
 17.500      2.09088e+02       1.01108e+01       1.10392e+01       1.47128e-04       8.82891e+01
 17.600      2.09166e+02       9.57164e+00       1.07095e+01       1.44803e-04       8.69259e+01
 17.700      2.09258e+02       9.03273e+00       1.03861e+01       1.42510e-04       8.55870e+01
 17.800      2.09364e+02       8.49560e+00       1.00694e+01       1.40247e-04       8.42709e+01
 17.900      2.09483e+02       7.96178e+00       9.75956e+00       1.38015e-04       8.29765e+01
 18.000      2.09614e+02       7.43284e+00       9.45688e+00       1.35811e-04       8.17026e+01
 18.100      2.09757e+02       6.91033e+00       9.16157e+00       1.33634e-04       8.04482e+01
 18.200      2.09912e+02       6.39580e+00       8.87389e+00       1.31484e-04       7.92123e+01
 18.300      2.10077e+02       5.89081e+00       8.59407e+00       1.29360e-04       7.79938e+01
 18.400      2.10252e+02       5.39690e+00       8.32235e+00       1.27260e-04       7.67918e+01
 18.500      2.10437e+02       4.91563e+00       8.05896e+00       1.25184e-04       7.56055e+01
 18.600      2.10630e+02       4.44854e+00       7.80416e+00       1.23131e-04       7.44339e+01
 18.700      2.10832e+02       3.99720e+00       7.55818e+00       1.21100e-04       7.32764e+01
 18.800      2.11041e+02       3.56316e+00       7.32126e+00       1.19091e-04       7.21321e+01
 18.900      2.11257e+02       3.14796e+00       7.09365e+00       1.17103e-04       7.10003e+01
 19.000      2.11479e+02       2.75315e+00       6.87557e+00       1.15134e-04       6.98803e+01
 19.100      2.11707e+02       2.37971e+00       6.66716e+00       1.13186e-04       6.87718e+01
 19.200      2.11940e+02       2.02688e+00       6.46820e+00       1.11259e-04       6.76753e+01
 19.300      2.12178e+02       1.69362e+00       6.27842e+00       1.09354e-04       6.65913e+01
 19.400      2.12420e+02       1.37884e+00       6.09752e+00       1.07473e-04       6.55202e+01
 19.500      2.12664e+02       1.08149e+00       5.92523e+00       1.05616e-04       6.44626e+01
 19.600      2.12912e+02       8.00526e-01       5.76128e+00       1.03786e-04       6.34188e+01
 19.700      2.13161e+02       5.34880e-01       5.60538e+00       1.01981e-04       6.23895e+01
 19.800      2.13412e+02       2.83500e-01       5.45727e+00       1.00205e-04       6.13747e+01
 19.900      2.13664e+02       4.53160e-02       5.31664e+00       9.84564e-05       6.03750e+01
 20.000      2.13916e+02      -1.80724e-01       5.18323e+00       9.67369e-05       5.93906e+01
 20.100      2.14168e+02      -3.95679e-01       5.05676e+00       9.50470e-05       5.84218e+01
 20.200      2.14419e+02      -6.00608e-01       4.93695e+00       9.33873e-05       5.74688e+01
 20.300      2.14668e+02      -7.96565e-01       4.82353e+00       9.17581e-05       5.65319e+01
