# Data Source: NASA GEOS5 Near-Real-Time
# Model Time = 2010-06-29 18:00:00
# Location = [  39.7393, -104.9900 ]
# Fields = [ Z(km), T(K), U(m/s), V(m/s), R(g/cm3), P(mbar) ]
# Ground Height = 1.589
  0.000      3.12175e+02      -1.62105e+00       1.59961e+00       1.13415e-03       1.01613e+03
  0.100      3.11519e+02      -1.59806e+00       1.61967e+00       1.12330e-03       1.00429e+03
  0.200      3.10868e+02      -1.56749e+00       1.64191e+00       1.11253e-03       9.92591e+02
  0.300      3.10207e+02      -1.55007e+00       1.66036e+00       1.10192e-03       9.81031e+02
  0.400      3.09516e+02      -1.56545e+00       1.66911e+00       1.09153e-03       9.69620e+02
  0.500      3.08812e+02      -1.60457e+00       1.66402e+00       1.08132e-03       9.58360e+02
  0.600      3.08143e+02      -1.62784e+00       1.64287e+00       1.07109e-03       9.47244e+02
  0.700      3.07528e+02      -1.61661e+00       1.60838e+00       1.06080e-03       9.36270e+02
  0.800      3.06916e+02      -1.59599e+00       1.57271e+00       1.05063e-03       9.25444e+02
  0.900      3.06264e+02      -1.59101e+00       1.54276e+00       1.04072e-03       9.14771e+02
  1.000      3.05596e+02      -1.60360e+00       1.49683e+00       1.03099e-03       9.04238e+02
  1.100      3.04949e+02      -1.62897e+00       1.40764e+00       1.02128e-03       8.93832e+02
  1.200      3.04336e+02      -1.65934e+00       1.28690e+00       1.01157e-03       8.83553e+02
  1.300      3.03744e+02      -1.68463e+00       1.17675e+00       1.00191e-03       8.73414e+02
  1.400      3.03153e+02      -1.69810e+00       1.10913e+00       9.92379e-04       8.63419e+02
  1.500      3.02518e+02      -1.70152e+00       1.08834e+00       9.83109e-04       8.53563e+02
  1.600      3.01795e+02      -1.69813e+00       1.11374e+00       9.74234e-04       8.43835e+02
  1.700      3.00988e+02      -1.69243e+00       1.17593e+00       9.65722e-04       8.34225e+02
  1.800      3.00136e+02      -1.68985e+00       1.25941e+00       9.57431e-04       8.24721e+02
  1.900      2.99269e+02      -1.69614e+00       1.35251e+00       9.49248e-04       8.15312e+02
  2.000      2.98396e+02      -1.71809e+00       1.45809e+00       9.41147e-04       8.05994e+02
  2.100      2.97515e+02      -1.76251e+00       1.58220e+00       9.33125e-04       7.96765e+02
  2.200      2.96630e+02      -1.82485e+00       1.72258e+00       9.25171e-04       7.87624e+02
  2.300      2.95748e+02      -1.88374e+00       1.86472e+00       9.17261e-04       7.78568e+02
  2.400      2.94875e+02      -1.91714e+00       1.99386e+00       9.09375e-04       7.69597e+02
  2.500      2.94012e+02      -1.91377e+00       2.10542e+00       9.01517e-04       7.60712e+02
  2.600      2.93149e+02      -1.87047e+00       2.20269e+00       8.93711e-04       7.51914e+02
  2.700      2.92281e+02      -1.78562e+00       2.28852e+00       8.85983e-04       7.43204e+02
  2.800      2.91395e+02      -1.66792e+00       2.36111e+00       8.78361e-04       7.34577e+02
  2.900      2.90479e+02      -1.53097e+00       2.41649e+00       8.70876e-04       7.26029e+02
  3.000      2.89522e+02      -1.38678e+00       2.45130e+00       8.63554e-04       7.17553e+02
  3.100      2.88530e+02      -1.23821e+00       2.46613e+00       8.56378e-04       7.09149e+02
  3.200      2.87511e+02      -1.08481e+00       2.46293e+00       8.49318e-04       7.00820e+02
  3.300      2.86477e+02      -9.26175e-01       2.44350e+00       8.42344e-04       6.92564e+02
  3.400      2.85441e+02      -7.62303e-01       2.40870e+00       8.35409e-04       6.84381e+02
  3.500      2.84421e+02      -5.93293e-01       2.35908e+00       8.28465e-04       6.76265e+02
  3.600      2.83427e+02      -4.19517e-01       2.29422e+00       8.21472e-04       6.68215e+02
  3.700      2.82459e+02      -2.43069e-01       2.20748e+00       8.14439e-04       6.60231e+02
  3.800      2.81508e+02      -6.67322e-02       2.08977e+00       8.07392e-04       6.52315e+02
  3.900      2.80568e+02       1.05519e-01       1.93324e+00       8.00354e-04       6.44470e+02
  4.000      2.79646e+02       2.57636e-01       1.74291e+00       7.93305e-04       6.36694e+02
  4.100      2.78758e+02       3.66559e-01       1.53122e+00       7.86201e-04       6.28988e+02
  4.200      2.77917e+02       4.10052e-01       1.31040e+00       7.79003e-04       6.21349e+02
  4.300      2.77126e+02       3.89028e-01       1.08433e+00       7.71708e-04       6.13780e+02
  4.400      2.76373e+02       3.28855e-01       8.48117e-01       7.64354e-04       6.06280e+02
  4.500      2.75646e+02       2.56024e-01       5.96459e-01       7.56981e-04       5.98850e+02
  4.600      2.74935e+02       1.79141e-01       3.28763e-01       7.49614e-04       5.91493e+02
  4.700      2.74244e+02       6.15267e-02       5.63899e-02       7.42248e-04       5.84208e+02
  4.800      2.73576e+02      -1.40555e-01      -2.07438e-01       7.34872e-04       5.76995e+02
  4.900      2.72935e+02      -4.63500e-01      -4.48996e-01       7.27483e-04       5.69855e+02
  5.000      2.72305e+02      -8.73406e-01      -6.49773e-01       7.20120e-04       5.62785e+02
  5.100      2.71660e+02      -1.29725e+00      -7.88591e-01       7.12850e-04       5.55785e+02
  5.200      2.70977e+02      -1.66166e+00      -8.44292e-01       7.05736e-04       5.48852e+02
  5.300      2.70238e+02      -1.92000e+00      -8.12005e-01       6.98814e-04       5.41987e+02
  5.400      2.69452e+02      -2.09121e+00      -7.26837e-01       6.92060e-04       5.35188e+02
  5.500      2.68630e+02      -2.20414e+00      -6.29918e-01       6.85441e-04       5.28453e+02
  5.600      2.67784e+02      -2.28756e+00      -5.61333e-01       6.78925e-04       5.21782e+02
  5.700      2.66927e+02      -2.36920e+00      -5.35116e-01       6.72480e-04       5.15174e+02
  5.800      2.66071e+02      -2.47565e+00      -5.38119e-01       6.66073e-04       5.08630e+02
  5.900      2.65230e+02      -2.63344e+00      -5.55918e-01       6.59673e-04       5.02149e+02
  6.000      2.64415e+02      -2.86786e+00      -5.74591e-01       6.53249e-04       4.95733e+02
  6.100      2.63635e+02      -3.18931e+00      -5.86030e-01       6.46786e-04       4.89379e+02
  6.200      2.62893e+02      -3.59858e+00      -5.85888e-01       6.40276e-04       4.83090e+02
  6.300      2.62192e+02      -4.09633e+00      -5.69882e-01       6.33714e-04       4.76864e+02
  6.400      2.61535e+02      -4.68164e+00      -5.34370e-01       6.27096e-04       4.70701e+02
  6.500      2.60910e+02      -5.33731e+00      -4.82375e-01       6.20453e-04       4.64601e+02
  6.600      2.60297e+02      -6.03652e+00      -4.20866e-01       6.13833e-04       4.58566e+02
  6.700      2.59678e+02      -6.75232e+00      -3.56865e-01       6.07284e-04       4.52594e+02
  6.800      2.59033e+02      -7.45812e+00      -2.97308e-01       6.00852e-04       4.46687e+02
  6.900      2.58354e+02      -8.13335e+00      -2.47639e-01       5.94549e-04       4.40844e+02
  7.000      2.57645e+02      -8.76257e+00      -2.12036e-01       5.88368e-04       4.35063e+02
  7.100      2.56908e+02      -9.33053e+00      -1.94636e-01       5.82297e-04       4.29343e+02
  7.200      2.56146e+02      -9.82195e+00      -1.99520e-01       5.76328e-04       4.23682e+02
  7.300      2.55363e+02      -1.02216e+01      -2.22629e-01       5.70450e-04       4.18079e+02
  7.400      2.54563e+02      -1.05145e+01      -2.43376e-01       5.64652e-04       4.12533e+02
  7.500      2.53749e+02      -1.06856e+01      -2.39170e-01       5.58925e-04       4.07043e+02
  7.600      2.52926e+02      -1.07197e+01      -1.87420e-01       5.53256e-04       4.01608e+02
  7.700      2.52098e+02      -1.06046e+01      -6.82469e-02       5.47638e-04       3.96228e+02
  7.800      2.51267e+02      -1.03563e+01       1.10449e-01       5.42062e-04       3.90901e+02
  7.900      2.50438e+02      -1.00072e+01       3.24475e-01       5.36523e-04       3.85629e+02
  8.000      2.49611e+02      -9.59005e+00       5.49433e-01       5.31015e-04       3.80410e+02
  8.100      2.48790e+02      -9.13754e+00       7.60927e-01       5.25533e-04       3.75245e+02
  8.200      2.47978e+02      -8.67724e+00       9.38430e-01       5.20072e-04       3.70134e+02
  8.300      2.47178e+02      -8.21296e+00       1.07931e+00       5.14625e-04       3.65076e+02
  8.400      2.46395e+02      -7.74167e+00       1.18608e+00       5.09185e-04       3.60072e+02
  8.500      2.45631e+02      -7.26034e+00       1.26126e+00       5.03747e-04       3.55122e+02
  8.600      2.44891e+02      -6.76593e+00       1.30738e+00       4.98305e-04       3.50226e+02
  8.700      2.44175e+02      -6.25698e+00       1.32683e+00       4.92857e-04       3.45385e+02
  8.800      2.43474e+02      -5.73921e+00       1.32141e+00       4.87425e-04       3.40598e+02
  8.900      2.42772e+02      -5.22039e+00       1.29276e+00       4.82039e-04       3.35863e+02
  9.000      2.42055e+02      -4.70830e+00       1.24251e+00       4.76724e-04       3.31179e+02
  9.100      2.41309e+02      -4.21073e+00       1.17231e+00       4.71506e-04       3.26545e+02
  9.200      2.40522e+02      -3.73537e+00       1.08450e+00       4.66409e-04       3.21961e+02
  9.300      2.39699e+02      -3.28890e+00       9.89781e-01       4.61417e-04       3.17426e+02
  9.400      2.38859e+02      -2.87733e+00       9.04300e-01       4.56497e-04       3.12939e+02
  9.500      2.38019e+02      -2.50665e+00       8.44284e-01       4.51611e-04       3.08502e+02
  9.600      2.37199e+02      -2.18286e+00       8.25964e-01       4.46727e-04       3.04115e+02
  9.700      2.36417e+02      -1.91198e+00       8.65568e-01       4.41810e-04       2.99776e+02
  9.800      2.35684e+02      -1.69591e+00       9.72903e-01       4.36843e-04       2.95487e+02
  9.900      2.34988e+02      -1.52266e+00       1.13578e+00       4.31849e-04       2.91246e+02
 10.000      2.34311e+02      -1.37721e+00       1.33730e+00       4.26863e-04       2.87053e+02
 10.100      2.33635e+02      -1.24457e+00       1.56058e+00       4.21917e-04       2.82908e+02
 10.200      2.32941e+02      -1.10975e+00       1.78871e+00       4.17043e-04       2.78810e+02
 10.300      2.32214e+02      -9.57733e-01       2.00481e+00       4.12271e-04       2.74759e+02
 10.400      2.31440e+02      -7.77789e-01       2.19523e+00       4.07619e-04       2.70754e+02
 10.500      2.30631e+02      -5.73396e-01       2.35721e+00       4.03066e-04       2.66794e+02
 10.600      2.29801e+02      -3.51012e-01       2.49025e+00       3.98586e-04       2.62879e+02
 10.700      2.28966e+02      -1.17096e-01       2.59386e+00       3.94150e-04       2.59009e+02
 10.800      2.28141e+02       1.21900e-01       2.66754e+00       3.89732e-04       2.55182e+02
 10.900      2.27340e+02       3.59516e-01       2.71081e+00       3.85307e-04       2.51399e+02
 11.000      2.26577e+02       5.89793e-01       2.72318e+00       3.80853e-04       2.47660e+02
 11.100      2.25857e+02       8.13439e-01       2.70441e+00       3.76365e-04       2.43963e+02
 11.200      2.25174e+02       1.03594e+00       2.65443e+00       3.71854e-04       2.40310e+02
 11.300      2.24522e+02       1.26288e+00       2.57317e+00       3.67331e-04       2.36701e+02
 11.400      2.23898e+02       1.49986e+00       2.46054e+00       3.62807e-04       2.33135e+02
 11.500      2.23296e+02       1.75246e+00       2.31647e+00       3.58291e-04       2.29614e+02
 11.600      2.22711e+02       2.02628e+00       2.14089e+00       3.53793e-04       2.26137e+02
 11.700      2.22137e+02       2.32660e+00       1.93375e+00       3.49321e-04       2.22704e+02
 11.800      2.21571e+02       2.65528e+00       1.69514e+00       3.44884e-04       2.19315e+02
 11.900      2.21009e+02       3.01195e+00       1.42527e+00       3.40487e-04       2.15970e+02
 12.000      2.20446e+02       3.39624e+00       1.12434e+00       3.36137e-04       2.12667e+02
 12.100      2.19878e+02       3.80775e+00       7.92554e-01       3.31838e-04       2.09407e+02
 12.200      2.19301e+02       4.24608e+00       4.30134e-01       3.27597e-04       2.06188e+02
 12.300      2.18711e+02       4.71086e+00       3.72723e-02       3.23417e-04       2.03010e+02
 12.400      2.18104e+02       5.20169e+00      -3.85816e-01       3.19305e-04       1.99872e+02
 12.500      2.17479e+02       5.71549e+00      -8.37826e-01       3.15261e-04       1.96774e+02
 12.600      2.16843e+02       6.23968e+00      -1.31353e+00       3.11271e-04       1.93716e+02
 12.700      2.16208e+02       6.75956e+00      -1.80682e+00       3.07321e-04       1.90698e+02
 12.800      2.15584e+02       7.26045e+00      -2.31161e+00       3.03395e-04       1.87718e+02
 12.900      2.14982e+02       7.72764e+00      -2.82182e+00       2.99478e-04       1.84777e+02
 13.000      2.14413e+02       8.14646e+00      -3.33134e+00       2.95557e-04       1.81875e+02
 13.100      2.13887e+02       8.50221e+00      -3.83409e+00       2.91619e-04       1.79012e+02
 13.200      2.13415e+02       8.78020e+00      -4.32396e+00       2.87650e-04       1.76186e+02
 13.300      2.13008e+02       8.96653e+00      -4.79479e+00       2.83640e-04       1.73398e+02
 13.400      2.12665e+02       9.06021e+00      -5.23920e+00       2.79592e-04       1.70649e+02
 13.500      2.12379e+02       9.07089e+00      -5.64878e+00       2.75521e-04       1.67938e+02
 13.600      2.12142e+02       9.00850e+00      -6.01513e+00       2.71439e-04       1.65265e+02
 13.700      2.11947e+02       8.88298e+00      -6.32982e+00       2.67361e-04       1.62633e+02
 13.800      2.11786e+02       8.70428e+00      -6.58442e+00       2.63300e-04       1.60040e+02
 13.900      2.11650e+02       8.48233e+00      -6.77053e+00       2.59266e-04       1.57487e+02
 14.000      2.11532e+02       8.22708e+00      -6.87971e+00       2.55272e-04       1.54975e+02
 14.100      2.11425e+02       7.94846e+00      -6.90355e+00       2.51329e-04       1.52503e+02
 14.200      2.11320e+02       7.65642e+00      -6.83363e+00       2.47446e-04       1.50073e+02
 14.300      2.11210e+02       7.36006e+00      -6.66507e+00       2.43630e-04       1.47682e+02
 14.400      2.11096e+02       7.06481e+00      -6.40849e+00       2.39882e-04       1.45331e+02
 14.500      2.10978e+02       6.77511e+00      -6.07874e+00       2.36196e-04       1.43018e+02
 14.600      2.10855e+02       6.49538e+00      -5.69071e+00       2.32569e-04       1.40740e+02
 14.700      2.10730e+02       6.23006e+00      -5.25924e+00       2.28997e-04       1.38496e+02
 14.800      2.10602e+02       5.98358e+00      -4.79921e+00       2.25479e-04       1.36286e+02
 14.900      2.10472e+02       5.76036e+00      -4.32547e+00       2.22009e-04       1.34106e+02
 15.000      2.10341e+02       5.56483e+00      -3.85290e+00       2.18587e-04       1.31956e+02
 15.100      2.10210e+02       5.40143e+00      -3.39634e+00       2.15208e-04       1.29835e+02
 15.200      2.10078e+02       5.27459e+00      -2.97068e+00       2.11870e-04       1.27741e+02
 15.300      2.09947e+02       5.18874e+00      -2.59076e+00       2.08571e-04       1.25674e+02
 15.400      2.09817e+02       5.14777e+00      -2.27042e+00       2.05308e-04       1.23632e+02
 15.500      2.09690e+02       5.14945e+00      -2.01154e+00       2.02082e-04       1.21615e+02
 15.600      2.09566e+02       5.18768e+00      -1.80842e+00       1.98894e-04       1.19625e+02
 15.700      2.09445e+02       5.25627e+00      -1.65525e+00       1.95745e-04       1.17664e+02
 15.800      2.09330e+02       5.34903e+00      -1.54618e+00       1.92637e-04       1.15732e+02
 15.900      2.09221e+02       5.45979e+00      -1.47541e+00       1.89571e-04       1.13831e+02
 16.000      2.09119e+02       5.58236e+00      -1.43709e+00       1.86548e-04       1.11961e+02
 16.100      2.09026e+02       5.71056e+00      -1.42542e+00       1.83568e-04       1.10123e+02
 16.200      2.08941e+02       5.83821e+00      -1.43455e+00       1.80633e-04       1.08319e+02
 16.300      2.08866e+02       5.95913e+00      -1.45867e+00       1.77744e-04       1.06548e+02
 16.400      2.08803e+02       6.06713e+00      -1.49196e+00       1.74901e-04       1.04812e+02
 16.500      2.08752e+02       6.15603e+00      -1.52858e+00       1.72104e-04       1.03110e+02
 16.600      2.08713e+02       6.21965e+00      -1.56272e+00       1.69355e-04       1.01445e+02
 16.700      2.08689e+02       6.25181e+00      -1.58854e+00       1.66653e-04       9.98150e+01
 16.800      2.08679e+02       6.24812e+00      -1.60176e+00       1.64000e-04       9.82211e+01
 16.900      2.08684e+02       6.20928e+00      -1.60250e+00       1.61392e-04       9.66615e+01
 17.000      2.08703e+02       6.13690e+00      -1.59162e+00       1.58829e-04       9.51348e+01
 17.100      2.08735e+02       6.03259e+00      -1.57001e+00       1.56307e-04       9.36392e+01
 17.200      2.08781e+02       5.89794e+00      -1.53855e+00       1.53827e-04       9.21734e+01
 17.300      2.08839e+02       5.73457e+00      -1.49811e+00       1.51386e-04       9.07359e+01
 17.400      2.08910e+02       5.54407e+00      -1.44957e+00       1.48982e-04       8.93253e+01
 17.500      2.08992e+02       5.32805e+00      -1.39381e+00       1.46615e-04       8.79404e+01
 17.600      2.09085e+02       5.08812e+00      -1.33171e+00       1.44282e-04       8.65799e+01
 17.700      2.09189e+02       4.82588e+00      -1.26415e+00       1.41982e-04       8.52426e+01
 17.800      2.09304e+02       4.54294e+00      -1.19200e+00       1.39715e-04       8.39274e+01
 17.900      2.09429e+02       4.24090e+00      -1.11616e+00       1.37479e-04       8.26333e+01
 18.000      2.09563e+02       3.92136e+00      -1.03748e+00       1.35272e-04       8.13591e+01
 18.100      2.09707e+02       3.58593e+00      -9.56861e-01       1.33094e-04       8.01040e+01
 18.200      2.09859e+02       3.23622e+00      -8.75172e-01       1.30944e-04       7.88669e+01
 18.300      2.10019e+02       2.87383e+00      -7.93295e-01       1.28820e-04       7.76470e+01
 18.400      2.10187e+02       2.50036e+00      -7.12105e-01       1.26722e-04       7.64435e+01
 18.500      2.10363e+02       2.11743e+00      -6.32484e-01       1.24649e-04       7.52556e+01
 18.600      2.10545e+02       1.72662e+00      -5.55309e-01       1.22599e-04       7.40824e+01
 18.700      2.10734e+02       1.32956e+00      -4.81459e-01       1.20573e-04       7.29232e+01
 18.800      2.10928e+02       9.27843e-01      -4.11815e-01       1.18569e-04       7.17774e+01
 18.900      2.11129e+02       5.23070e-01      -3.47252e-01       1.16587e-04       7.06444e+01
 19.000      2.11334e+02       1.16841e-01      -2.88632e-01       1.14625e-04       6.95234e+01
 19.100      2.11544e+02      -2.89552e-01      -2.36184e-01       1.12685e-04       6.84145e+01
 19.200      2.11758e+02      -6.95188e-01      -1.89376e-01       1.10767e-04       6.73182e+01
 19.300      2.11976e+02      -1.09916e+00      -1.47628e-01       1.08872e-04       6.62349e+01
 19.400      2.12198e+02      -1.50058e+00      -1.10361e-01       1.07002e-04       6.51652e+01
 19.500      2.12422e+02      -1.89854e+00      -7.69960e-02       1.05157e-04       6.41094e+01
 19.600      2.12650e+02      -2.29214e+00      -4.69535e-02       1.03339e-04       6.30680e+01
 19.700      2.12879e+02      -2.68048e+00      -1.96548e-02       1.01547e-04       6.20413e+01
 19.800      2.13110e+02      -3.06266e+00       5.47903e-03       9.97828e-05       6.10297e+01
 19.900      2.13343e+02      -3.43778e+00       2.90279e-02       9.80470e-05       6.00335e+01
 20.000      2.13576e+02      -3.80494e+00       5.15705e-02       9.63401e-05       5.90530e+01
 20.100      2.13810e+02      -4.16325e+00       7.36861e-02       9.46626e-05       5.80883e+01
 20.200      2.14044e+02      -4.51179e+00       9.59536e-02       9.30149e-05       5.71397e+01
 20.300      2.14278e+02      -4.84967e+00       1.18952e-01       9.13975e-05       5.62074e+01
