# Data Source: NASA MERRA (version 2)
# Model Time = 2011-07-16 18:00:00
# Location = [  39.1026,  -84.5123 ]
# Fields = [ Z(km), T(K), U(m/s), V(m/s), R(g/cm3), P(mbar) ]
# Ground Height = 0.165
  0.000      3.03122e+02       1.32183e-01       1.59847e+00       1.16943e-03       1.01736e+03
  0.100      3.02219e+02       1.82031e-01       1.67114e+00       1.15972e-03       1.00590e+03
  0.200      3.01335e+02       2.14931e-01       1.74586e+00       1.15002e-03       9.94572e+02
  0.300      3.00433e+02       2.63508e-01       1.81869e+00       1.14048e-03       9.83371e+02
  0.400      2.99477e+02       3.60216e-01       1.88572e+00       1.13124e-03       9.72299e+02
  0.500      2.98462e+02       5.16035e-01       1.94984e+00       1.12230e-03       9.61348e+02
  0.600      2.97449e+02       6.99666e-01       2.02729e+00       1.11341e-03       9.50493e+02
  0.700      2.96492e+02       8.80863e-01       2.13263e+00       1.10434e-03       9.39715e+02
  0.800      2.95573e+02       1.05688e+00       2.26533e+00       1.09516e-03       9.29019e+02
  0.900      2.94658e+02       1.23282e+00       2.42011e+00       1.08602e-03       9.18415e+02
  1.000      2.93747e+02       1.41324e+00       2.58541e+00       1.07693e-03       9.07905e+02
  1.100      2.92864e+02       1.60224e+00       2.74507e+00       1.06777e-03       8.97485e+02
  1.200      2.92031e+02       1.79789e+00       2.88433e+00       1.05849e-03       8.87151e+02
  1.300      2.91260e+02       1.98628e+00       2.99144e+00       1.04904e-03       8.76906e+02
  1.400      2.90562e+02       2.15207e+00       3.05497e+00       1.03938e-03       8.66751e+02
  1.500      2.89948e+02       2.27992e+00       3.06351e+00       1.02949e-03       8.56687e+02
  1.600      2.89429e+02       2.35469e+00       3.00577e+00       1.01933e-03       8.46715e+02
  1.700      2.89001e+02       2.37279e+00       2.87856e+00       1.00893e-03       8.36836e+02
  1.800      2.88631e+02       2.34873e+00       2.69130e+00       9.98409e-04       8.27052e+02
  1.900      2.88285e+02       2.29855e+00       2.45452e+00       9.87893e-04       8.17361e+02
  2.000      2.87931e+02       2.23832e+00       2.17875e+00       9.77496e-04       8.07766e+02
  2.100      2.87535e+02       2.18407e+00       1.87450e+00       9.67332e-04       7.98266e+02
  2.200      2.87078e+02       2.14543e+00       1.54674e+00       9.57457e-04       7.88862e+02
  2.300      2.86581e+02       2.11704e+00       1.18746e+00       9.47799e-04       7.79554e+02
  2.400      2.86070e+02       2.09143e+00       7.86840e-01       9.38272e-04       7.70340e+02
  2.500      2.85568e+02       2.06109e+00       3.35025e-01       9.28794e-04       7.61221e+02
  2.600      2.85102e+02       2.01855e+00      -1.77824e-01       9.19283e-04       7.52197e+02
  2.700      2.84693e+02       1.95670e+00      -7.58584e-01       9.09674e-04       7.43267e+02
  2.800      2.84332e+02       1.87179e+00      -1.38871e+00       9.00000e-04       7.34430e+02
  2.900      2.83995e+02       1.76180e+00      -2.03675e+00       8.90340e-04       7.25685e+02
  3.000      2.83657e+02       1.62470e+00      -2.67116e+00       8.80773e-04       7.17033e+02
  3.100      2.83293e+02       1.45846e+00      -3.26038e+00       8.71373e-04       7.08471e+02
  3.200      2.82879e+02       1.26105e+00      -3.77286e+00       8.62214e-04       7.00000e+02
  3.300      2.82397e+02       1.03270e+00      -4.18522e+00       8.53344e-04       6.91619e+02
  3.400      2.81854e+02       7.82551e-01      -4.50675e+00       8.44737e-04       6.83325e+02
  3.500      2.81262e+02       5.22016e-01      -4.75492e+00       8.36347e-04       6.75117e+02
  3.600      2.80634e+02       2.62495e-01      -4.94720e+00       8.28131e-04       6.66994e+02
  3.700      2.79985e+02       1.53854e-02      -5.10105e+00       8.20045e-04       6.58953e+02
  3.800      2.79326e+02      -2.07909e-01      -5.23394e+00       8.12049e-04       6.50993e+02
  3.900      2.78671e+02      -3.97146e-01      -5.36090e+00       8.04105e-04       6.43112e+02
  4.000      2.78025e+02      -5.48836e-01      -5.48263e+00       7.96196e-04       6.35310e+02
  4.100      2.77391e+02      -6.61941e-01      -5.59469e+00       7.88314e-04       6.27587e+02
  4.200      2.76774e+02      -7.35427e-01      -5.69260e+00       7.80447e-04       6.19941e+02
  4.300      2.76176e+02      -7.68257e-01      -5.77189e+00       7.72588e-04       6.12373e+02
  4.400      2.75602e+02      -7.59397e-01      -5.82811e+00       7.64728e-04       6.04882e+02
  4.500      2.75054e+02      -7.07885e-01      -5.85683e+00       7.56857e-04       5.97467e+02
  4.600      2.74533e+02      -6.16857e-01      -5.85641e+00       7.48979e-04       5.90128e+02
  4.700      2.74033e+02      -4.95647e-01      -5.82945e+00       7.41110e-04       5.82864e+02
  4.800      2.73548e+02      -3.54101e-01      -5.77886e+00       7.33268e-04       5.75675e+02
  4.900      2.73070e+02      -2.02067e-01      -5.70759e+00       7.25470e-04       5.68560e+02
  5.000      2.72595e+02      -4.93929e-02      -5.61855e+00       7.17733e-04       5.61518e+02
  5.100      2.72116e+02       9.40740e-02      -5.51468e+00       7.10074e-04       5.54548e+02
  5.200      2.71626e+02       2.18528e-01      -5.39893e+00       7.02506e-04       5.47650e+02
  5.300      2.71122e+02       3.16501e-01      -5.27517e+00       6.95040e-04       5.40824e+02
  5.400      2.70602e+02       3.84070e-01      -5.14869e+00       6.87675e-04       5.34068e+02
  5.500      2.70068e+02       4.17607e-01      -5.02491e+00       6.80409e-04       5.27382e+02
  5.600      2.69519e+02       4.13484e-01      -4.90924e+00       6.73244e-04       5.20767e+02
  5.700      2.68954e+02       3.68073e-01      -4.80707e+00       6.66176e-04       5.14221e+02
  5.800      2.68375e+02       2.77746e-01      -4.72383e+00       6.59207e-04       5.07744e+02
  5.900      2.67780e+02       1.38875e-01      -4.66492e+00       6.52334e-04       5.01337e+02
  6.000      2.67170e+02      -5.07919e-02      -4.63554e+00       6.45556e-04       4.94997e+02
  6.100      2.66547e+02      -2.83009e-01      -4.63933e+00       6.38864e-04       4.88724e+02
  6.200      2.65917e+02      -5.44694e-01      -4.67920e+00       6.32245e-04       4.82518e+02
  6.300      2.65282e+02      -8.22737e-01      -4.75807e+00       6.25689e-04       4.76375e+02
  6.400      2.64648e+02      -1.10403e+00      -4.87883e+00       6.19184e-04       4.70295e+02
  6.500      2.64019e+02      -1.37546e+00      -5.04440e+00       6.12718e-04       4.64277e+02
  6.600      2.63398e+02      -1.62392e+00      -5.25770e+00       6.06281e-04       4.58319e+02
  6.700      2.62789e+02      -1.83630e+00      -5.52161e+00       5.99864e-04       4.52420e+02
  6.800      2.62198e+02      -1.99998e+00      -5.83853e+00       5.93455e-04       4.46580e+02
  6.900      2.61622e+02      -2.11001e+00      -6.20237e+00       5.87061e-04       4.40798e+02
  7.000      2.61058e+02      -2.16755e+00      -6.60031e+00       5.80695e-04       4.35078e+02
  7.100      2.60501e+02      -2.17396e+00      -7.01934e+00       5.74371e-04       4.29421e+02
  7.200      2.59946e+02      -2.13056e+00      -7.44647e+00       5.68102e-04       4.23830e+02
  7.300      2.59390e+02      -2.03870e+00      -7.86868e+00       5.61901e-04       4.18306e+02
  7.400      2.58827e+02      -1.89972e+00      -8.27296e+00       5.55781e-04       4.12852e+02
  7.500      2.58253e+02      -1.71494e+00      -8.64632e+00       5.49753e-04       4.07469e+02
  7.600      2.57663e+02      -1.48573e+00      -8.97574e+00       5.43829e-04       4.02158e+02
  7.700      2.57054e+02      -1.21365e+00      -9.24889e+00       5.38019e-04       3.96921e+02
  7.800      2.56424e+02      -9.04162e-01      -9.46360e+00       5.32318e-04       3.91753e+02
  7.900      2.55775e+02      -5.65781e-01      -9.62580e+00       5.26709e-04       3.86644e+02
  8.000      2.55110e+02      -2.07098e-01      -9.74166e+00       5.21175e-04       3.81586e+02
  8.100      2.54430e+02       1.63296e-01      -9.81730e+00       5.15700e-04       3.76571e+02
  8.200      2.53737e+02       5.36799e-01      -9.85888e+00       5.10269e-04       3.71590e+02
  8.300      2.53032e+02       9.04826e-01      -9.87254e+00       5.04867e-04       3.66636e+02
  8.400      2.52319e+02       1.25877e+00      -9.86444e+00       4.99481e-04       3.61702e+02
  8.500      2.51599e+02       1.59006e+00      -9.84072e+00       4.94096e-04       3.56781e+02
  8.600      2.50873e+02       1.89008e+00      -9.80752e+00       4.88699e-04       3.51867e+02
  8.700      2.50145e+02       2.15076e+00      -9.77083e+00       4.83281e-04       3.46954e+02
  8.800      2.49413e+02       2.37127e+00      -9.73430e+00       4.77856e-04       3.42056e+02
  8.900      2.48677e+02       2.55606e+00      -9.69991e+00       4.72457e-04       3.37194e+02
  9.000      2.47937e+02       2.70970e+00      -9.66957e+00       4.67118e-04       3.32391e+02
  9.100      2.47192e+02       2.83676e+00      -9.64522e+00       4.61868e-04       3.27668e+02
  9.200      2.46441e+02       2.94180e+00      -9.62879e+00       4.56738e-04       3.23044e+02
  9.300      2.45683e+02       3.02939e+00      -9.62219e+00       4.51755e-04       3.18537e+02
  9.400      2.44918e+02       3.10410e+00      -9.62736e+00       4.46946e-04       3.14164e+02
  9.500      2.44144e+02       3.17050e+00      -9.64623e+00       4.42338e-04       3.09943e+02
  9.600      2.43362e+02       3.23316e+00      -9.68072e+00       4.37954e-04       3.05888e+02
  9.700      2.42569e+02       3.29664e+00      -9.73275e+00       4.33819e-04       3.02014e+02
  9.800      2.41767e+02       3.36541e+00      -9.80423e+00       4.29956e-04       2.98334e+02
  9.900      2.40954e+02       3.44095e+00      -9.89603e+00       4.26360e-04       2.94844e+02
 10.000      2.40134e+02       3.52140e+00      -1.00079e+01       4.23001e-04       2.91526e+02
 10.100      2.39307e+02       3.60476e+00      -1.01396e+01       4.19850e-04       2.88358e+02
 10.200      2.38476e+02       3.68900e+00      -1.02907e+01       4.16875e-04       2.85320e+02
 10.300      2.37643e+02       3.77211e+00      -1.04610e+01       4.14050e-04       2.82396e+02
 10.400      2.36809e+02       3.85207e+00      -1.06502e+01       4.11345e-04       2.79567e+02
 10.500      2.35977e+02       3.92686e+00      -1.08580e+01       4.08733e-04       2.76816e+02
 10.600      2.35148e+02       3.99447e+00      -1.10841e+01       4.06189e-04       2.74126e+02
 10.700      2.34324e+02       4.05287e+00      -1.13282e+01       4.03685e-04       2.71483e+02
 10.800      2.33508e+02       4.10006e+00      -1.15899e+01       4.01198e-04       2.68870e+02
 10.900      2.32700e+02       4.13400e+00      -1.18690e+01       3.98703e-04       2.66274e+02
 11.000      2.31904e+02       4.15269e+00      -1.21652e+01       3.96174e-04       2.63679e+02
 11.100      2.31120e+02       4.15411e+00      -1.24782e+01       3.93590e-04       2.61074e+02
 11.200      2.30352e+02       4.13624e+00      -1.28077e+01       3.90926e-04       2.58445e+02
 11.300      2.29600e+02       4.09706e+00      -1.31533e+01       3.88161e-04       2.55779e+02
 11.400      2.28866e+02       4.03456e+00      -1.35149e+01       3.85273e-04       2.53065e+02
 11.500      2.28153e+02       3.94672e+00      -1.38920e+01       3.82241e-04       2.50291e+02
 11.600      2.27462e+02       3.83237e+00      -1.42836e+01       3.79049e-04       2.47449e+02
 11.700      2.26791e+02       3.69506e+00      -1.46847e+01       3.75697e-04       2.44538e+02
 11.800      2.26137e+02       3.53992e+00      -1.50886e+01       3.72195e-04       2.41559e+02
 11.900      2.25496e+02       3.37209e+00      -1.54889e+01       3.68548e-04       2.38515e+02
 12.000      2.24867e+02       3.19670e+00      -1.58790e+01       3.64766e-04       2.35408e+02
 12.100      2.24245e+02       3.01888e+00      -1.62523e+01       3.60856e-04       2.32241e+02
 12.200      2.23627e+02       2.84379e+00      -1.66024e+01       3.56826e-04       2.29015e+02
 12.300      2.23012e+02       2.67653e+00      -1.69227e+01       3.52684e-04       2.25733e+02
 12.400      2.22395e+02       2.52227e+00      -1.72067e+01       3.48437e-04       2.22398e+02
 12.500      2.21774e+02       2.38612e+00      -1.74478e+01       3.44095e-04       2.19013e+02
 12.600      2.21145e+02       2.27323e+00      -1.76395e+01       3.39665e-04       2.15580e+02
 12.700      2.20506e+02       2.18874e+00      -1.77754e+01       3.35155e-04       2.12103e+02
 12.800      2.19853e+02       2.13777e+00      -1.78487e+01       3.30571e-04       2.08583e+02
 12.900      2.19183e+02       2.12546e+00      -1.78531e+01       3.25924e-04       2.05025e+02
 13.000      2.18494e+02       2.15695e+00      -1.77820e+01       3.21219e-04       2.01430e+02
 13.100      2.17783e+02       2.23689e+00      -1.76295e+01       3.16465e-04       1.97803e+02
 13.200      2.17051e+02       2.36260e+00      -1.73980e+01       3.11673e-04       1.94153e+02
 13.300      2.16302e+02       2.52588e+00      -1.70968e+01       3.06856e-04       1.90492e+02
 13.400      2.15542e+02       2.71839e+00      -1.67350e+01       3.02027e-04       1.86835e+02
 13.500      2.14774e+02       2.93179e+00      -1.63219e+01       2.97197e-04       1.83193e+02
 13.600      2.14004e+02       3.15773e+00      -1.58667e+01       2.92379e-04       1.79576e+02
 13.700      2.13236e+02       3.38786e+00      -1.53787e+01       2.87581e-04       1.75996e+02
 13.800      2.12474e+02       3.61385e+00      -1.48671e+01       2.82815e-04       1.72461e+02
 13.900      2.11724e+02       3.82734e+00      -1.43412e+01       2.78089e-04       1.68981e+02
 14.000      2.10990e+02       4.02000e+00      -1.38101e+01       2.73412e-04       1.65562e+02
 14.100      2.10277e+02       4.18347e+00      -1.32832e+01       2.68791e-04       1.62214e+02
 14.200      2.09589e+02       4.30941e+00      -1.27696e+01       2.64235e-04       1.58942e+02
 14.300      2.08930e+02       4.38949e+00      -1.22786e+01       2.59748e-04       1.55753e+02
 14.400      2.08306e+02       4.41535e+00      -1.18195e+01       2.55339e-04       1.52651e+02
 14.500      2.07721e+02       4.37865e+00      -1.14014e+01       2.51011e-04       1.49643e+02
 14.600      2.07179e+02       4.27411e+00      -1.10308e+01       2.46769e-04       1.46729e+02
 14.700      2.06678e+02       4.10501e+00      -1.07061e+01       2.42610e-04       1.43908e+02
 14.800      2.06218e+02       3.87609e+00      -1.04242e+01       2.38531e-04       1.41174e+02
 14.900      2.05797e+02       3.59213e+00      -1.01822e+01       2.34531e-04       1.38523e+02
 15.000      2.05414e+02       3.25788e+00      -9.97701e+00       2.30607e-04       1.35952e+02
 15.100      2.05069e+02       2.87810e+00      -9.80574e+00       2.26755e-04       1.33456e+02
 15.200      2.04758e+02       2.45755e+00      -9.66536e+00       2.22975e-04       1.31033e+02
 15.300      2.04483e+02       2.00098e+00      -9.55286e+00       2.19263e-04       1.28678e+02
 15.400      2.04240e+02       1.51317e+00      -9.46526e+00       2.15619e-04       1.26389e+02
 15.500      2.04029e+02       9.98856e-01      -9.39956e+00       2.12039e-04       1.24163e+02
 15.600      2.03849e+02       4.62808e-01      -9.35276e+00       2.08523e-04       1.21996e+02
 15.700      2.03699e+02      -9.02092e-02      -9.32187e+00       2.05068e-04       1.19886e+02
 15.800      2.03577e+02      -6.55448e-01      -9.30390e+00       2.01672e-04       1.17830e+02
 15.900      2.03482e+02      -1.22814e+00      -9.29585e+00       1.98335e-04       1.15826e+02
 16.000      2.03412e+02      -1.80353e+00      -9.29472e+00       1.95055e-04       1.13871e+02
 16.100      2.03367e+02      -2.37686e+00      -9.29753e+00       1.91829e-04       1.11964e+02
 16.200      2.03346e+02      -2.94338e+00      -9.30128e+00       1.88657e-04       1.10101e+02
 16.300      2.03346e+02      -3.49830e+00      -9.30297e+00       1.85538e-04       1.08281e+02
 16.400      2.03368e+02      -4.03689e+00      -9.29960e+00       1.82470e-04       1.06501e+02
 16.500      2.03409e+02      -4.55438e+00      -9.28820e+00       1.79451e-04       1.04761e+02
 16.600      2.03469e+02      -5.04602e+00      -9.26575e+00       1.76481e-04       1.03057e+02
 16.700      2.03545e+02      -5.50704e+00      -9.22927e+00       1.73559e-04       1.01389e+02
 16.800      2.03638e+02      -5.93268e+00      -9.17577e+00       1.70683e-04       9.97540e+01
 16.900      2.03746e+02      -6.31988e+00      -9.10321e+00       1.67852e-04       9.81514e+01
 17.000      2.03868e+02      -6.66982e+00      -9.01205e+00       1.65065e-04       9.65796e+01
 17.100      2.04004e+02      -6.98440e+00      -8.90312e+00       1.62321e-04       9.50375e+01
 17.200      2.04155e+02      -7.26549e+00      -8.77727e+00       1.59618e-04       9.35240e+01
 17.300      2.04319e+02      -7.51496e+00      -8.63534e+00       1.56956e-04       9.20381e+01
 17.400      2.04496e+02      -7.73471e+00      -8.47816e+00       1.54333e-04       9.05786e+01
 17.500      2.04686e+02      -7.92660e+00      -8.30658e+00       1.51749e-04       8.91447e+01
 17.600      2.04889e+02      -8.09252e+00      -8.12142e+00       1.49202e-04       8.77355e+01
 17.700      2.05105e+02      -8.23434e+00      -7.92354e+00       1.46691e-04       8.63499e+01
 17.800      2.05332e+02      -8.35395e+00      -7.71377e+00       1.44216e-04       8.49872e+01
 17.900      2.05572e+02      -8.45323e+00      -7.49295e+00       1.41776e-04       8.36465e+01
 18.000      2.05822e+02      -8.53405e+00      -7.26192e+00       1.39370e-04       8.23271e+01
 18.100      2.06084e+02      -8.59829e+00      -7.02151e+00       1.36997e-04       8.10281e+01
 18.200      2.06357e+02      -8.64784e+00      -6.77257e+00       1.34656e-04       7.97489e+01
 18.300      2.06640e+02      -8.68456e+00      -6.51594e+00       1.32346e-04       7.84888e+01
 18.400      2.06933e+02      -8.71035e+00      -6.25246e+00       1.30068e-04       7.72471e+01
 18.500      2.07237e+02      -8.72708e+00      -5.98295e+00       1.27819e-04       7.60231e+01
 18.600      2.07550e+02      -8.73663e+00      -5.70827e+00       1.25601e-04       7.48162e+01
 18.700      2.07872e+02      -8.74088e+00      -5.42926e+00       1.23411e-04       7.36260e+01
 18.800      2.08203e+02      -8.74170e+00      -5.14675e+00       1.21249e-04       7.24517e+01
 18.900      2.08543e+02      -8.74098e+00      -4.86157e+00       1.19116e-04       7.12929e+01
 19.000      2.08891e+02      -8.74060e+00      -4.57458e+00       1.17009e-04       7.01491e+01
 19.100      2.09247e+02      -8.74228e+00      -4.28661e+00       1.14930e-04       6.90198e+01
 19.200      2.09610e+02      -8.74684e+00      -3.99853e+00       1.12878e-04       6.79053e+01
 19.300      2.09979e+02      -8.75474e+00      -3.71123e+00       1.10855e-04       6.68057e+01
 19.400      2.10352e+02      -8.76647e+00      -3.42558e+00       1.08863e-04       6.57214e+01
 19.500      2.10728e+02      -8.78251e+00      -3.14246e+00       1.06901e-04       6.46526e+01
 19.600      2.11106e+02      -8.80331e+00      -2.86275e+00       1.04971e-04       6.35994e+01
 19.700      2.11485e+02      -8.82937e+00      -2.58733e+00       1.03074e-04       6.25622e+01
 19.800      2.11864e+02      -8.86116e+00      -2.31709e+00       1.01211e-04       6.15410e+01
 19.900      2.12240e+02      -8.89915e+00      -2.05288e+00       9.93811e-05       6.05359e+01
 20.000      2.12613e+02      -8.94381e+00      -1.79561e+00       9.75862e-05       5.95472e+01
 20.100      2.12982e+02      -8.99563e+00      -1.54615e+00       9.58264e-05       5.85748e+01
 20.200      2.13346e+02      -9.05508e+00      -1.30537e+00       9.41021e-05       5.76189e+01
 20.300      2.13702e+02      -9.12262e+00      -1.07417e+00       9.24135e-05       5.66796e+01
