# Data Source: NASA MERRA (version 1)
# Model Time = 2010-07-26 18:00:00
# Location = [  39.7393, -104.9900 ]
# Fields = [ Z(km), T(K), U(m/s), V(m/s), R(g/cm3), P(mbar) ]
# Ground Height = 1.589
  0.000      3.13223e+02      -1.58096e+00      -1.08453e-01       1.12408e-03       1.01049e+03
  0.100      3.12649e+02      -1.60038e+00      -1.40514e-01       1.11300e-03       9.98695e+02
  0.200      3.12073e+02      -1.62033e+00      -1.69868e-01       1.10203e-03       9.87038e+02
  0.300      3.11474e+02      -1.64554e+00      -1.72158e-01       1.09128e-03       9.75530e+02
  0.400      3.10836e+02      -1.67745e+00      -1.33241e-01       1.08080e-03       9.64179e+02
  0.500      3.10181e+02      -1.70238e+00      -8.59361e-02       1.07050e-03       9.52981e+02
  0.600      3.09534e+02      -1.70401e+00      -6.99429e-02       1.06030e-03       9.41931e+02
  0.700      3.08893e+02      -1.68196e+00      -6.38083e-02       1.05020e-03       9.31029e+02
  0.800      3.08238e+02      -1.64457e+00      -1.47131e-02       1.04028e-03       9.20276e+02
  0.900      3.07571e+02      -1.60333e+00       7.62986e-02       1.03052e-03       9.09669e+02
  1.000      3.06922e+02      -1.57336e+00       1.44983e-01       1.02082e-03       8.99204e+02
  1.100      3.06308e+02      -1.56638e+00       1.42858e-01       1.01112e-03       8.88875e+02
  1.200      3.05709e+02      -1.58266e+00       8.29862e-02       1.00148e-03       8.78681e+02
  1.300      3.05100e+02      -1.62017e+00      -9.34782e-03       9.91991e-04       8.68623e+02
  1.400      3.04451e+02      -1.67691e+00      -1.08860e-01       9.82746e-04       8.58700e+02
  1.500      3.03738e+02      -1.75085e+00      -1.90274e-01       9.73827e-04       8.48911e+02
  1.600      3.02943e+02      -1.83852e+00      -2.37335e-01       9.65275e-04       8.39254e+02
  1.700      3.02085e+02      -1.93218e+00      -2.59670e-01       9.57019e-04       8.29720e+02
  1.800      3.01188e+02      -2.02338e+00      -2.71518e-01       9.48969e-04       8.20298e+02
  1.900      3.00276e+02      -2.10365e+00      -2.87120e-01       9.41037e-04       8.10978e+02
  2.000      2.99372e+02      -2.16451e+00      -3.20716e-01       9.33138e-04       8.01750e+02
  2.100      2.98498e+02      -2.19849e+00      -3.85713e-01       9.25197e-04       7.92607e+02
  2.200      2.97660e+02      -2.20520e+00      -4.89536e-01       9.17196e-04       7.83547e+02
  2.300      2.96857e+02      -2.18733e+00      -6.37000e-01       9.09145e-04       7.74572e+02
  2.400      2.96086e+02      -2.14763e+00      -8.32908e-01       9.01051e-04       7.65684e+02
  2.500      2.95347e+02      -2.08879e+00      -1.08206e+00       8.92924e-04       7.56885e+02
  2.600      2.94639e+02      -2.01357e+00      -1.38924e+00       8.84772e-04       7.48176e+02
  2.700      2.93956e+02      -1.92616e+00      -1.75367e+00       8.76612e-04       7.39557e+02
  2.800      2.93287e+02      -1.83401e+00      -2.16256e+00       8.68475e-04       7.31026e+02
  2.900      2.92620e+02      -1.74499e+00      -2.60154e+00       8.60398e-04       7.22579e+02
  3.000      2.91942e+02      -1.66697e+00      -3.05627e+00       8.52413e-04       7.14214e+02
  3.100      2.91240e+02      -1.60779e+00      -3.51237e+00       8.44552e-04       7.05927e+02
  3.200      2.90503e+02      -1.57526e+00      -3.95552e+00       8.36849e-04       6.97716e+02
  3.300      2.89723e+02      -1.57007e+00      -4.37412e+00       8.29314e-04       6.89579e+02
  3.400      2.88907e+02      -1.58021e+00      -4.76152e+00       8.21931e-04       6.81514e+02
  3.500      2.88060e+02      -1.59235e+00      -5.11157e+00       8.14677e-04       6.73521e+02
  3.600      2.87190e+02      -1.59314e+00      -5.41812e+00       8.07531e-04       6.65597e+02
  3.700      2.86304e+02      -1.56925e+00      -5.67503e+00       8.00473e-04       6.57742e+02
  3.800      2.85406e+02      -1.50734e+00      -5.87614e+00       7.93483e-04       6.49954e+02
  3.900      2.84504e+02      -1.39758e+00      -6.01791e+00       7.86544e-04       6.42234e+02
  4.000      2.83598e+02      -1.24385e+00      -6.10702e+00       7.79653e-04       6.34579e+02
  4.100      2.82688e+02      -1.05342e+00      -6.15265e+00       7.72810e-04       6.26991e+02
  4.200      2.81773e+02      -8.33570e-01      -6.16400e+00       7.66016e-04       6.19469e+02
  4.300      2.80856e+02      -5.91557e-01      -6.15024e+00       7.59269e-04       6.12013e+02
  4.400      2.79934e+02      -3.34654e-01      -6.12057e+00       7.52569e-04       6.04622e+02
  4.500      2.79009e+02      -7.01277e-02      -6.08401e+00       7.45918e-04       5.97297e+02
  4.600      2.78081e+02       1.94844e-01      -6.04157e+00       7.39310e-04       5.90038e+02
  4.700      2.77154e+02       4.53203e-01      -5.98303e+00       7.32737e-04       5.82843e+02
  4.800      2.76232e+02       6.97905e-01      -5.89731e+00       7.26190e-04       5.75714e+02
  4.900      2.75318e+02       9.21901e-01      -5.77334e+00       7.19662e-04       5.68650e+02
  5.000      2.74415e+02       1.11814e+00      -5.60004e+00       7.13143e-04       5.61651e+02
  5.100      2.73527e+02       1.27959e+00      -5.36636e+00       7.06626e-04       5.54717e+02
  5.200      2.72657e+02       1.39924e+00      -5.06133e+00       7.00102e-04       5.47848e+02
  5.300      2.71808e+02       1.47427e+00      -4.68230e+00       6.93565e-04       5.41043e+02
  5.400      2.70983e+02       1.50861e+00      -4.24016e+00       6.87011e-04       5.34303e+02
  5.500      2.70183e+02       1.50681e+00      -3.74705e+00       6.80436e-04       5.27628e+02
  5.600      2.69410e+02       1.47342e+00      -3.21511e+00       6.73837e-04       5.21016e+02
  5.700      2.68667e+02       1.41299e+00      -2.65646e+00       6.67210e-04       5.14468e+02
  5.800      2.67955e+02       1.33009e+00      -2.08325e+00       6.60551e-04       5.07983e+02
  5.900      2.67275e+02       1.22927e+00      -1.50761e+00       6.53857e-04       5.01561e+02
  6.000      2.66631e+02       1.11518e+00      -9.41896e-01       6.47127e-04       4.95202e+02
  6.100      2.66021e+02       9.93457e-01      -4.00345e-01       6.40366e-04       4.88906e+02
  6.200      2.65441e+02       8.70199e-01       1.01852e-01       6.33586e-04       4.82675e+02
  6.300      2.64889e+02       7.51515e-01       5.49501e-01       6.26795e-04       4.76509e+02
  6.400      2.64362e+02       6.43517e-01       9.27397e-01       6.20005e-04       4.70410e+02
  6.500      2.63857e+02       5.52311e-01       1.22034e+00       6.13224e-04       4.64377e+02
  6.600      2.63372e+02       4.84008e-01       1.41315e+00       6.06463e-04       4.58412e+02
  6.700      2.62904e+02       4.44716e-01       1.49061e+00       5.99729e-04       4.52516e+02
  6.800      2.62449e+02       4.40194e-01       1.43889e+00       5.93032e-04       4.46688e+02
  6.900      2.62001e+02       4.70261e-01       1.26735e+00       5.86386e-04       4.40929e+02
  7.000      2.61552e+02       5.29790e-01       1.00465e+00       5.79810e-04       4.35236e+02
  7.100      2.61091e+02       6.13500e-01       6.80046e-01       5.73320e-04       4.29607e+02
  7.200      2.60610e+02       7.16113e-01       3.22786e-01       5.66935e-04       4.24040e+02
  7.300      2.60100e+02       8.32349e-01      -3.78752e-02       5.60671e-04       4.18534e+02
  7.400      2.59551e+02       9.56928e-01      -3.72680e-01       5.54544e-04       4.13086e+02
  7.500      2.58954e+02       1.08457e+00      -6.52378e-01       5.48569e-04       4.07696e+02
  7.600      2.58301e+02       1.21000e+00      -8.47713e-01       5.42761e-04       4.02361e+02
  7.700      2.57581e+02       1.32837e+00      -9.30987e-01       5.37134e-04       3.97081e+02
  7.800      2.56798e+02       1.44274e+00      -9.02560e-01       5.31679e-04       3.91853e+02
  7.900      2.55960e+02       1.56303e+00      -7.87159e-01       5.26375e-04       3.86678e+02
  8.000      2.55079e+02       1.69939e+00      -6.10324e-01       5.21195e-04       3.81554e+02
  8.100      2.54164e+02       1.86196e+00      -3.97590e-01       5.16117e-04       3.76482e+02
  8.200      2.53226e+02       2.06089e+00      -1.74498e-01       5.11119e-04       3.71460e+02
  8.300      2.52276e+02       2.30633e+00       3.34189e-02       5.06177e-04       3.66489e+02
  8.400      2.51324e+02       2.60843e+00       2.00619e-01       5.01271e-04       3.61567e+02
  8.500      2.50380e+02       2.97733e+00       3.01569e-01       4.96380e-04       3.56694e+02
  8.600      2.49455e+02       3.42319e+00       3.10728e-01       4.91482e-04       3.51870e+02
  8.700      2.48559e+02       3.95507e+00       2.04298e-01       4.86559e-04       3.47094e+02
  8.800      2.47693e+02       4.56671e+00      -1.64875e-02       4.81608e-04       3.42365e+02
  8.900      2.46856e+02       5.24030e+00      -3.31608e-01       4.76635e-04       3.37685e+02
  9.000      2.46044e+02       5.95777e+00      -7.20592e-01       4.71648e-04       3.33053e+02
  9.100      2.45254e+02       6.70104e+00      -1.16297e+00       4.66655e-04       3.28469e+02
  9.200      2.44483e+02       7.45202e+00      -1.63825e+00       4.61662e-04       3.23933e+02
  9.300      2.43728e+02       8.19264e+00      -2.12597e+00       4.56677e-04       3.19446e+02
  9.400      2.42986e+02       8.90482e+00      -2.60566e+00       4.51707e-04       3.15007e+02
  9.500      2.42253e+02       9.57048e+00      -3.05684e+00       4.46758e-04       3.10616e+02
  9.600      2.41527e+02       1.01715e+01      -3.45904e+00       4.41837e-04       3.06273e+02
  9.700      2.40804e+02       1.06899e+01      -3.79177e+00       4.36950e-04       3.01979e+02
  9.800      2.40082e+02       1.11083e+01      -4.03536e+00       4.32102e-04       2.97733e+02
  9.900      2.39359e+02       1.14251e+01      -4.18545e+00       4.27295e-04       2.93535e+02
 10.000      2.38636e+02       1.16527e+01      -4.25166e+00       4.22529e-04       2.89384e+02
 10.100      2.37913e+02       1.18042e+01      -4.24416e+00       4.17801e-04       2.85280e+02
 10.200      2.37193e+02       1.18926e+01      -4.17308e+00       4.13111e-04       2.81222e+02
 10.300      2.36474e+02       1.19310e+01      -4.04858e+00       4.08455e-04       2.77210e+02
 10.400      2.35758e+02       1.19324e+01      -3.88079e+00       4.03834e-04       2.73244e+02
 10.500      2.35045e+02       1.19099e+01      -3.67988e+00       3.99245e-04       2.69323e+02
 10.600      2.34337e+02       1.18764e+01      -3.45598e+00       3.94687e-04       2.65446e+02
 10.700      2.33634e+02       1.18450e+01      -3.21924e+00       3.90160e-04       2.61613e+02
 10.800      2.32936e+02       1.18288e+01      -2.97981e+00       3.85661e-04       2.57824e+02
 10.900      2.32245e+02       1.18408e+01      -2.74784e+00       3.81189e-04       2.54079e+02
 11.000      2.31561e+02       1.18940e+01      -2.53347e+00       3.76744e-04       2.50376e+02
 11.100      2.30884e+02       1.19989e+01      -2.34527e+00       3.72324e-04       2.46715e+02
 11.200      2.30214e+02       1.21522e+01      -2.18322e+00       3.67931e-04       2.43097e+02
 11.300      2.29550e+02       1.23457e+01      -2.04437e+00       3.63568e-04       2.39521e+02
 11.400      2.28890e+02       1.25713e+01      -1.92579e+00       3.59235e-04       2.35987e+02
 11.500      2.28234e+02       1.28210e+01      -1.82453e+00       3.54936e-04       2.32494e+02
 11.600      2.27580e+02       1.30866e+01      -1.73764e+00       3.50672e-04       2.29043e+02
 11.700      2.26927e+02       1.33601e+01      -1.66220e+00       3.46446e-04       2.25634e+02
 11.800      2.26275e+02       1.36334e+01      -1.59525e+00       3.42258e-04       2.22265e+02
 11.900      2.25621e+02       1.38984e+01      -1.53386e+00       3.38110e-04       2.18938e+02
 12.000      2.24966e+02       1.41470e+01      -1.47508e+00       3.34005e-04       2.15651e+02
 12.100      2.24307e+02       1.43710e+01      -1.41597e+00       3.29943e-04       2.12404e+02
 12.200      2.23644e+02       1.45625e+01      -1.35359e+00       3.25926e-04       2.09198e+02
 12.300      2.22975e+02       1.47133e+01      -1.28500e+00       3.21956e-04       2.06032e+02
 12.400      2.22299e+02       1.48152e+01      -1.20726e+00       3.18034e-04       2.02905e+02
 12.500      2.21616e+02       1.48604e+01      -1.11742e+00       3.14161e-04       1.99819e+02
 12.600      2.20925e+02       1.48431e+01      -1.01344e+00       3.10337e-04       1.96771e+02
 12.700      2.20227e+02       1.47665e+01      -8.96315e-01       3.06560e-04       1.93762e+02
 12.800      2.19524e+02       1.46355e+01      -7.67636e-01       3.02827e-04       1.90791e+02
 12.900      2.18819e+02       1.44550e+01      -6.29023e-01       2.99132e-04       1.87859e+02
 13.000      2.18114e+02       1.42299e+01      -4.82082e-01       2.95475e-04       1.84963e+02
 13.100      2.17410e+02       1.39651e+01      -3.28425e-01       2.91851e-04       1.82105e+02
 13.200      2.16710e+02       1.36654e+01      -1.69664e-01       2.88257e-04       1.79284e+02
 13.300      2.16015e+02       1.33358e+01      -7.40688e-03       2.84691e-04       1.76498e+02
 13.400      2.15329e+02       1.29811e+01       1.56734e-01       2.81149e-04       1.73748e+02
 13.500      2.14652e+02       1.26063e+01       3.21151e-01       2.77630e-04       1.71034e+02
 13.600      2.13987e+02       1.22162e+01       4.84232e-01       2.74130e-04       1.68355e+02
 13.700      2.13336e+02       1.18158e+01       6.44366e-01       2.70647e-04       1.65710e+02
 13.800      2.12701e+02       1.14099e+01       7.99945e-01       2.67178e-04       1.63099e+02
 13.900      2.12084e+02       1.10035e+01       9.49355e-01       2.63722e-04       1.60522e+02
 14.000      2.11487e+02       1.06013e+01       1.09099e+00       2.60276e-04       1.57979e+02
 14.100      2.10912e+02       1.02084e+01       1.22324e+00       2.56838e-04       1.55468e+02
 14.200      2.10361e+02       9.82962e+00       1.34449e+00       2.53406e-04       1.52991e+02
 14.300      2.09837e+02       9.46982e+00       1.45313e+00       2.49978e-04       1.50545e+02
 14.400      2.09341e+02       9.13342e+00       1.54774e+00       2.46554e-04       1.48132e+02
 14.500      2.08873e+02       8.82067e+00       1.62845e+00       2.43133e-04       1.45750e+02
 14.600      2.08434e+02       8.52990e+00       1.69610e+00       2.39718e-04       1.43401e+02
 14.700      2.08023e+02       8.25940e+00       1.75155e+00       2.36310e-04       1.41083e+02
 14.800      2.07640e+02       8.00746e+00       1.79567e+00       2.32911e-04       1.38798e+02
 14.900      2.07284e+02       7.77238e+00       1.82931e+00       2.29523e-04       1.36544e+02
 15.000      2.06956e+02       7.55245e+00       1.85332e+00       2.26147e-04       1.34323e+02
 15.100      2.06655e+02       7.34597e+00       1.86858e+00       2.22786e-04       1.32134e+02
 15.200      2.06381e+02       7.15123e+00       1.87594e+00       2.19440e-04       1.29977e+02
 15.300      2.06133e+02       6.96652e+00       1.87625e+00       2.16111e-04       1.27852e+02
 15.400      2.05912e+02       6.79015e+00       1.87039e+00       2.12801e-04       1.25759e+02
 15.500      2.05718e+02       6.62040e+00       1.85919e+00       2.09510e-04       1.23697e+02
 15.600      2.05549e+02       6.45557e+00       1.84353e+00       2.06241e-04       1.21667e+02
 15.700      2.05406e+02       6.29395e+00       1.82427e+00       2.02995e-04       1.19669e+02
 15.800      2.05288e+02       6.13385e+00       1.80226e+00       1.99773e-04       1.17701e+02
 15.900      2.05196e+02       5.97355e+00       1.77836e+00       1.96575e-04       1.15766e+02
 16.000      2.05129e+02       5.81135e+00       1.75343e+00       1.93404e-04       1.13861e+02
 16.100      2.05086e+02       5.64553e+00       1.72833e+00       1.90260e-04       1.11986e+02
 16.200      2.05068e+02       5.47441e+00       1.70392e+00       1.87144e-04       1.10143e+02
 16.300      2.05075e+02       5.29628e+00       1.68105e+00       1.84058e-04       1.08330e+02
 16.400      2.05105e+02       5.10942e+00       1.66060e+00       1.81001e-04       1.06547e+02
 16.500      2.05159e+02       4.91213e+00       1.64341e+00       1.77976e-04       1.04794e+02
 16.600      2.05237e+02       4.70270e+00       1.63034e+00       1.74983e-04       1.03070e+02
 16.700      2.05338e+02       4.47944e+00       1.62226e+00       1.72022e-04       1.01376e+02
 16.800      2.05463e+02       4.24064e+00       1.62002e+00       1.69095e-04       9.97115e+01
 16.900      2.05609e+02       3.98539e+00       1.62403e+00       1.66202e-04       9.80756e+01
 17.000      2.05777e+02       3.71467e+00       1.63367e+00       1.63344e-04       9.64680e+01
 17.100      2.05965e+02       3.42976e+00       1.64813e+00       1.60523e-04       9.48882e+01
 17.200      2.06170e+02       3.13191e+00       1.66663e+00       1.57740e-04       9.33358e+01
 17.300      2.06391e+02       2.82241e+00       1.68837e+00       1.54995e-04       9.18103e+01
 17.400      2.06628e+02       2.50251e+00       1.71255e+00       1.52290e-04       9.03112e+01
 17.500      2.06877e+02       2.17349e+00       1.73839e+00       1.49625e-04       8.88381e+01
 17.600      2.07138e+02       1.83660e+00       1.76508e+00       1.47002e-04       8.73905e+01
 17.700      2.07409e+02       1.49312e+00       1.79184e+00       1.44420e-04       8.59679e+01
 17.800      2.07689e+02       1.14432e+00       1.81788e+00       1.41880e-04       8.45700e+01
 17.900      2.07975e+02       7.91456e-01       1.84239e+00       1.39383e-04       8.31962e+01
 18.000      2.08266e+02       4.35800e-01       1.86459e+00       1.36930e-04       8.18461e+01
 18.100      2.08561e+02       7.86213e-02       1.88369e+00       1.34519e-04       8.05194e+01
 18.200      2.08859e+02      -2.78814e-01       1.89888e+00       1.32153e-04       7.92156e+01
 18.300      2.09156e+02      -6.35233e-01       1.90938e+00       1.29830e-04       7.79344e+01
 18.400      2.09453e+02      -9.89380e-01       1.91439e+00       1.27552e-04       7.66753e+01
 18.500      2.09747e+02      -1.33998e+00       1.91312e+00       1.25318e-04       7.54379e+01
 18.600      2.10037e+02      -1.68577e+00       1.90477e+00       1.23127e-04       7.42218e+01
 18.700      2.10321e+02      -2.02548e+00       1.88856e+00       1.20981e-04       7.30268e+01
 18.800      2.10597e+02      -2.35784e+00       1.86369e+00       1.18879e-04       7.18523e+01
 18.900      2.10865e+02      -2.68159e+00       1.82936e+00       1.16821e-04       7.06982e+01
 19.000      2.11121e+02      -2.99548e+00       1.78480e+00       1.14807e-04       6.95639e+01
 19.100      2.11367e+02      -3.29885e+00       1.72996e+00       1.12836e-04       6.84491e+01
 19.200      2.11602e+02      -3.59187e+00       1.66577e+00       1.10907e-04       6.73536e+01
 19.300      2.11827e+02      -3.87476e+00       1.59323e+00       1.09018e-04       6.62770e+01
 19.400      2.12043e+02      -4.14775e+00       1.51334e+00       1.07169e-04       6.52190e+01
 19.500      2.12249e+02      -4.41106e+00       1.42708e+00       1.05358e-04       6.41793e+01
 19.600      2.12448e+02      -4.66491e+00       1.33547e+00       1.03584e-04       6.31576e+01
 19.700      2.12639e+02      -4.90953e+00       1.23950e+00       1.01846e-04       6.21536e+01
 19.800      2.12822e+02      -5.14514e+00       1.14017e+00       1.00142e-04       6.11670e+01
 19.900      2.13000e+02      -5.37196e+00       1.03847e+00       9.84731e-05       6.01975e+01
 20.000      2.13172e+02      -5.59022e+00       9.35411e-01       9.68366e-05       5.92449e+01
 20.100      2.13338e+02      -5.80013e+00       8.31980e-01       9.52320e-05       5.83088e+01
 20.200      2.13500e+02      -6.00193e+00       7.29179e-01       9.36586e-05       5.73890e+01
 20.300      2.13659e+02      -6.19582e+00       6.28009e-01       9.21153e-05       5.64851e+01
