# Data Source: NASA MERRA (version 2)
# Model Time = 2011-07-01 18:00:00
# Location = [  39.1026,  -84.5123 ]
# Fields = [ Z(km), T(K), U(m/s), V(m/s), R(g/cm3), P(mbar) ]
# Ground Height = 0.165
  0.000      3.03342e+02       2.83693e+00      -5.65480e-01       1.16803e-03       1.01688e+03
  0.100      3.02456e+02       2.95148e+00      -5.60632e-01       1.15823e-03       1.00540e+03
  0.200      3.01585e+02       3.07710e+00      -5.48920e-01       1.14846e-03       9.94044e+02
  0.300      3.00697e+02       3.19043e+00      -5.44828e-01       1.13884e-03       9.82821e+02
  0.400      2.99760e+02       3.26834e+00      -5.62394e-01       1.12951e-03       9.71726e+02
  0.500      2.98765e+02       3.30394e+00      -5.79980e-01       1.12047e-03       9.60751e+02
  0.600      2.97743e+02       3.31819e+00      -5.14870e-01       1.11159e-03       9.49877e+02
  0.700      2.96728e+02       3.33518e+00      -3.13396e-01       1.10272e-03       9.39086e+02
  0.800      2.95740e+02       3.38047e+00      -5.73537e-02       1.09379e-03       9.28378e+02
  0.900      2.94798e+02       3.47297e+00       1.45348e-01       1.08473e-03       9.17758e+02
  1.000      2.93919e+02       3.55409e+00       2.59387e-01       1.07549e-03       9.07228e+02
  1.100      2.93125e+02       3.51823e+00       2.94143e-01       1.06600e-03       8.96788e+02
  1.200      2.92424e+02       3.31998e+00       2.49050e-01       1.05622e-03       8.86439e+02
  1.300      2.91816e+02       3.01470e+00       1.05974e-01       1.04618e-03       8.76186e+02
  1.400      2.91296e+02       2.66725e+00      -1.54871e-01       1.03590e-03       8.66031e+02
  1.500      2.90863e+02       2.34248e+00      -5.53271e-01       1.02540e-03       8.55976e+02
  1.600      2.90511e+02       2.10424e+00      -1.10821e+00       1.01470e-03       8.46024e+02
  1.700      2.90220e+02       1.97785e+00      -1.80779e+00       1.00389e-03       8.36176e+02
  1.800      2.89949e+02       1.93867e+00      -2.60002e+00       9.93123e-04       8.26430e+02
  1.900      2.89653e+02       1.95874e+00      -3.43026e+00       9.82535e-04       8.16786e+02
  2.000      2.89289e+02       2.01007e+00      -4.24386e+00       9.72275e-04       8.07240e+02
  2.100      2.88813e+02       2.06474e+00      -4.98631e+00       9.62480e-04       7.97793e+02
  2.200      2.88206e+02       2.10182e+00      -5.61977e+00       9.53201e-04       7.88442e+02
  2.300      2.87499e+02       2.11449e+00      -6.14022e+00       9.44325e-04       7.79184e+02
  2.400      2.86728e+02       2.09766e+00      -6.54775e+00       9.35723e-04       7.70016e+02
  2.500      2.85930e+02       2.04623e+00      -6.84244e+00       9.27268e-04       7.60935e+02
  2.600      2.85142e+02       1.95510e+00      -7.02437e+00       9.18839e-04       7.51938e+02
  2.700      2.84396e+02       1.81997e+00      -7.09569e+00       9.10326e-04       7.43022e+02
  2.800      2.83701e+02       1.64274e+00      -7.07463e+00       9.01706e-04       7.34188e+02
  2.900      2.83054e+02       1.42820e+00      -6.98698e+00       8.92994e-04       7.25437e+02
  3.000      2.82452e+02       1.18116e+00      -6.85856e+00       8.84205e-04       7.16771e+02
  3.100      2.81893e+02       9.06451e-01      -6.71521e+00       8.75353e-04       7.08190e+02
  3.200      2.81372e+02       6.08879e-01      -6.58274e+00       8.66454e-04       6.99695e+02
  3.300      2.80885e+02       2.93301e-01      -6.48234e+00       8.57529e-04       6.91288e+02
  3.400      2.80415e+02      -3.52874e-02      -6.41847e+00       8.48625e-04       6.82967e+02
  3.500      2.79947e+02      -3.71859e-01      -6.39183e+00       8.39794e-04       6.74730e+02
  3.600      2.79462e+02      -7.11388e-01      -6.40315e+00       8.31085e-04       6.66577e+02
  3.700      2.78943e+02      -1.04885e+00      -6.45314e+00       8.22548e-04       6.58505e+02
  3.800      2.78374e+02      -1.37921e+00      -6.54251e+00       8.14228e-04       6.50514e+02
  3.900      2.77741e+02      -1.69776e+00      -6.67163e+00       8.06158e-04       6.42601e+02
  4.000      2.77055e+02      -2.00129e+00      -6.83919e+00       7.98302e-04       6.34767e+02
  4.100      2.76332e+02      -2.28705e+00      -7.04339e+00       7.90608e-04       6.27010e+02
  4.200      2.75590e+02      -2.55227e+00      -7.28240e+00       7.83026e-04       6.19328e+02
  4.300      2.74845e+02      -2.79422e+00      -7.55443e+00       7.75504e-04       6.11722e+02
  4.400      2.74115e+02      -3.01014e+00      -7.85764e+00       7.67994e-04       6.04189e+02
  4.500      2.73416e+02      -3.19737e+00      -8.19008e+00       7.60452e-04       5.96729e+02
  4.600      2.72754e+02      -3.35640e+00      -8.54480e+00       7.52862e-04       5.89342e+02
  4.700      2.72121e+02      -3.49135e+00      -8.90901e+00       7.45247e-04       5.82028e+02
  4.800      2.71509e+02      -3.60656e+00      -9.26962e+00       7.37632e-04       5.74785e+02
  4.900      2.70910e+02      -3.70638e+00      -9.61353e+00       7.30040e-04       5.67615e+02
  5.000      2.70317e+02      -3.79514e+00      -9.92762e+00       7.22493e-04       5.60516e+02
  5.100      2.69720e+02      -3.87720e+00      -1.01988e+01       7.15014e-04       5.53490e+02
  5.200      2.69113e+02      -3.95680e+00      -1.04144e+01       7.07624e-04       5.46535e+02
  5.300      2.68492e+02      -4.03652e+00      -1.05731e+01       7.00326e-04       5.39652e+02
  5.400      2.67863e+02      -4.11723e+00      -1.06848e+01       6.93110e-04       5.32840e+02
  5.500      2.67229e+02      -4.19970e+00      -1.07596e+01       6.85965e-04       5.26099e+02
  5.600      2.66594e+02      -4.28473e+00      -1.08080e+01       6.78881e-04       5.19428e+02
  5.700      2.65962e+02      -4.37310e+00      -1.08402e+01       6.71846e-04       5.12828e+02
  5.800      2.65337e+02      -4.46560e+00      -1.08667e+01       6.64852e-04       5.06297e+02
  5.900      2.64724e+02      -4.56303e+00      -1.08977e+01       6.57887e-04       4.99836e+02
  6.000      2.64125e+02      -4.66681e+00      -1.09432e+01       6.50946e-04       4.93443e+02
  6.100      2.63539e+02      -4.78084e+00      -1.10124e+01       6.44034e-04       4.87119e+02
  6.200      2.62961e+02      -4.90956e+00      -1.11141e+01       6.37155e-04       4.80860e+02
  6.300      2.62391e+02      -5.05742e+00      -1.12571e+01       6.30317e-04       4.74667e+02
  6.400      2.61824e+02      -5.22886e+00      -1.14502e+01       6.23526e-04       4.68538e+02
  6.500      2.61257e+02      -5.42833e+00      -1.17023e+01       6.16787e-04       4.62472e+02
  6.600      2.60688e+02      -5.66028e+00      -1.20222e+01       6.10107e-04       4.56467e+02
  6.700      2.60114e+02      -5.92914e+00      -1.24188e+01       6.03491e-04       4.50523e+02
  6.800      2.59532e+02      -6.23763e+00      -1.28977e+01       5.96945e-04       4.44638e+02
  6.900      2.58941e+02      -6.57927e+00      -1.34478e+01       5.90471e-04       4.38815e+02
  7.000      2.58342e+02      -6.94462e+00      -1.40527e+01       5.84074e-04       4.33056e+02
  7.100      2.57733e+02      -7.32424e+00      -1.46960e+01       5.77756e-04       4.27362e+02
  7.200      2.57115e+02      -7.70869e+00      -1.53612e+01       5.71521e-04       4.21736e+02
  7.300      2.56487e+02      -8.08854e+00      -1.60318e+01       5.65371e-04       4.16179e+02
  7.400      2.55849e+02      -8.45434e+00      -1.66915e+01       5.59310e-04       4.10693e+02
  7.500      2.55201e+02      -8.79665e+00      -1.73237e+01       5.53339e-04       4.05280e+02
  7.600      2.54542e+02      -9.10602e+00      -1.79120e+01       5.47462e-04       3.99940e+02
  7.700      2.53873e+02      -9.37522e+00      -1.84440e+01       5.41677e-04       3.94674e+02
  7.800      2.53192e+02      -9.60544e+00      -1.89229e+01       5.35976e-04       3.89473e+02
  7.900      2.52500e+02      -9.79993e+00      -1.93556e+01       5.30345e-04       3.84327e+02
  8.000      2.51796e+02      -9.96196e+00      -1.97492e+01       5.24772e-04       3.79229e+02
  8.100      2.51079e+02      -1.00948e+01      -2.01106e+01       5.19248e-04       3.74169e+02
  8.200      2.50350e+02      -1.02016e+01      -2.04467e+01       5.13761e-04       3.69139e+02
  8.300      2.49607e+02      -1.02858e+01      -2.07646e+01       5.08300e-04       3.64132e+02
  8.400      2.48851e+02      -1.03505e+01      -2.10712e+01       5.02856e-04       3.59140e+02
  8.500      2.48080e+02      -1.03990e+01      -2.13734e+01       4.97420e-04       3.54158e+02
  8.600      2.47295e+02      -1.04346e+01      -2.16784e+01       4.91982e-04       3.49178e+02
  8.700      2.46495e+02      -1.04590e+01      -2.19906e+01       4.86545e-04       3.44202e+02
  8.800      2.45684e+02      -1.04707e+01      -2.23094e+01       4.81133e-04       3.39253e+02
  8.900      2.44863e+02      -1.04673e+01      -2.26329e+01       4.75776e-04       3.34355e+02
  9.000      2.44034e+02      -1.04468e+01      -2.29595e+01       4.70501e-04       3.29528e+02
  9.100      2.43200e+02      -1.04070e+01      -2.32875e+01       4.65333e-04       3.24795e+02
  9.200      2.42364e+02      -1.03455e+01      -2.36152e+01       4.60298e-04       3.20175e+02
  9.300      2.41527e+02      -1.02603e+01      -2.39408e+01       4.55417e-04       3.15687e+02
  9.400      2.40692e+02      -1.01492e+01      -2.42627e+01       4.50715e-04       3.11348e+02
  9.500      2.39862e+02      -1.00099e+01      -2.45791e+01       4.46213e-04       3.07174e+02
  9.600      2.39038e+02      -9.84023e+00      -2.48884e+01       4.41930e-04       3.03181e+02
  9.700      2.38223e+02      -9.63803e+00      -2.51889e+01       4.37886e-04       2.99383e+02
  9.800      2.37419e+02      -9.40231e+00      -2.54793e+01       4.34089e-04       2.95786e+02
  9.900      2.36626e+02      -9.13504e+00      -2.57599e+01       4.30515e-04       2.92370e+02
 10.000      2.35842e+02      -8.83864e+00      -2.60310e+01       4.27134e-04       2.89113e+02
 10.100      2.35067e+02      -8.51554e+00      -2.62930e+01       4.23921e-04       2.85996e+02
 10.200      2.34301e+02      -8.16817e+00      -2.65463e+01       4.20851e-04       2.82998e+02
 10.300      2.33542e+02      -7.79894e+00      -2.67912e+01       4.17897e-04       2.80102e+02
 10.400      2.32791e+02      -7.41029e+00      -2.70280e+01       4.15036e-04       2.77289e+02
 10.500      2.32045e+02      -7.00463e+00      -2.72572e+01       4.12244e-04       2.74542e+02
 10.600      2.31306e+02      -6.58439e+00      -2.74792e+01       4.09498e-04       2.71845e+02
 10.700      2.30572e+02      -6.15201e+00      -2.76942e+01       4.06777e-04       2.69181e+02
 10.800      2.29842e+02      -5.70988e+00      -2.79026e+01       4.04058e-04       2.66536e+02
 10.900      2.29116e+02      -5.26046e+00      -2.81049e+01       4.01321e-04       2.63894e+02
 11.000      2.28394e+02      -4.80615e+00      -2.83014e+01       3.98545e-04       2.61242e+02
 11.100      2.27673e+02      -4.34938e+00      -2.84924e+01       3.95710e-04       2.58566e+02
 11.200      2.26955e+02      -3.89258e+00      -2.86783e+01       3.92797e-04       2.55853e+02
 11.300      2.26238e+02      -3.43816e+00      -2.88595e+01       3.89787e-04       2.53090e+02
 11.400      2.25522e+02      -2.98857e+00      -2.90364e+01       3.86663e-04       2.50267e+02
 11.500      2.24806e+02      -2.54599e+00      -2.92091e+01       3.83409e-04       2.47373e+02
 11.600      2.24090e+02      -2.11149e+00      -2.93771e+01       3.80023e-04       2.44407e+02
 11.700      2.23374e+02      -1.68574e+00      -2.95395e+01       3.76505e-04       2.41372e+02
 11.800      2.22660e+02      -1.26940e+00      -2.96955e+01       3.72858e-04       2.38269e+02
 11.900      2.21947e+02      -8.63160e-01      -2.98442e+01       3.69081e-04       2.35101e+02
 12.000      2.21237e+02      -4.67682e-01      -2.99849e+01       3.65178e-04       2.31869e+02
 12.100      2.20528e+02      -8.36405e-02      -3.01166e+01       3.61149e-04       2.28577e+02
 12.200      2.19822e+02       2.88287e-01      -3.02384e+01       3.56997e-04       2.25226e+02
 12.300      2.19120e+02       6.47435e-01      -3.03496e+01       3.52725e-04       2.21819e+02
 12.400      2.18420e+02       9.93125e-01      -3.04494e+01       3.48335e-04       2.18359e+02
 12.500      2.17725e+02       1.32469e+00      -3.05367e+01       3.43829e-04       2.14849e+02
 12.600      2.17034e+02       1.64145e+00      -3.06109e+01       3.39212e-04       2.11291e+02
 12.700      2.16348e+02       1.94274e+00      -3.06710e+01       3.34486e-04       2.07689e+02
 12.800      2.15667e+02       2.22789e+00      -3.07163e+01       3.29656e-04       2.04045e+02
 12.900      2.14991e+02       2.49621e+00      -3.07457e+01       3.24724e-04       2.00363e+02
 13.000      2.14322e+02       2.74705e+00      -3.07585e+01       3.19697e-04       1.96647e+02
 13.100      2.13661e+02       2.97971e+00      -3.07526e+01       3.14592e-04       1.92910e+02
 13.200      2.13012e+02       3.19350e+00      -3.07260e+01       3.09429e-04       1.89168e+02
 13.300      2.12377e+02       3.38773e+00      -3.06765e+01       3.04227e-04       1.85433e+02
 13.400      2.11758e+02       3.56173e+00      -3.06020e+01       2.99006e-04       1.81720e+02
 13.500      2.11160e+02       3.71479e+00      -3.05003e+01       2.93781e-04       1.78040e+02
 13.600      2.10584e+02       3.84624e+00      -3.03692e+01       2.88568e-04       1.74404e+02
 13.700      2.10033e+02       3.95538e+00      -3.02067e+01       2.83384e-04       1.70823e+02
 13.800      2.09511e+02       4.04153e+00      -3.00105e+01       2.78242e-04       1.67306e+02
 13.900      2.09020e+02       4.10399e+00      -2.97786e+01       2.73154e-04       1.63862e+02
 14.000      2.08562e+02       4.14209e+00      -2.95088e+01       2.68134e-04       1.60498e+02
 14.100      2.08141e+02       4.15512e+00      -2.91989e+01       2.63193e-04       1.57222e+02
 14.200      2.07759e+02       4.14241e+00      -2.88468e+01       2.58341e-04       1.54041e+02
 14.300      2.07420e+02       4.10326e+00      -2.84503e+01       2.53587e-04       1.50959e+02
 14.400      2.07125e+02       4.03711e+00      -2.80076e+01       2.48940e-04       1.47982e+02
 14.500      2.06875e+02       3.94471e+00      -2.75202e+01       2.44400e-04       1.45108e+02
 14.600      2.06667e+02       3.82762e+00      -2.69914e+01       2.39965e-04       1.42331e+02
 14.700      2.06498e+02       3.68744e+00      -2.64248e+01       2.35632e-04       1.39647e+02
 14.800      2.06367e+02       3.52573e+00      -2.58239e+01       2.31398e-04       1.37051e+02
 14.900      2.06271e+02       3.34409e+00      -2.51920e+01       2.27260e-04       1.34537e+02
 15.000      2.06208e+02       3.14409e+00      -2.45327e+01       2.23215e-04       1.32102e+02
 15.100      2.06175e+02       2.92732e+00      -2.38495e+01       2.19261e-04       1.29742e+02
 15.200      2.06171e+02       2.69536e+00      -2.31459e+01       2.15396e-04       1.27452e+02
 15.300      2.06192e+02       2.44979e+00      -2.24253e+01       2.11617e-04       1.25229e+02
 15.400      2.06237e+02       2.19219e+00      -2.16912e+01       2.07923e-04       1.23069e+02
 15.500      2.06303e+02       1.92414e+00      -2.09471e+01       2.04310e-04       1.20970e+02
 15.600      2.06388e+02       1.64722e+00      -2.01965e+01       2.00776e-04       1.18927e+02
 15.700      2.06490e+02       1.36303e+00      -1.94429e+01       1.97321e-04       1.16938e+02
 15.800      2.06606e+02       1.07313e+00      -1.86897e+01       1.93941e-04       1.14999e+02
 15.900      2.06734e+02       7.79111e-01      -1.79404e+01       1.90635e-04       1.13109e+02
 16.000      2.06872e+02       4.82553e-01      -1.71985e+01       1.87401e-04       1.11264e+02
 16.100      2.07018e+02       1.85038e-01      -1.64674e+01       1.84236e-04       1.09462e+02
 16.200      2.07168e+02      -1.11852e-01      -1.57508e+01       1.81140e-04       1.07701e+02
 16.300      2.07321e+02      -4.06529e-01      -1.50520e+01       1.78111e-04       1.05978e+02
 16.400      2.07475e+02      -6.97424e-01      -1.43745e+01       1.75146e-04       1.04291e+02
 16.500      2.07627e+02      -9.82948e-01      -1.37218e+01       1.72245e-04       1.02639e+02
 16.600      2.07775e+02      -1.26152e+00      -1.30973e+01       1.69405e-04       1.01018e+02
 16.700      2.07916e+02      -1.53158e+00      -1.25046e+01       1.66625e-04       9.94283e+01
 16.800      2.08050e+02      -1.79240e+00      -1.19451e+01       1.63903e-04       9.78671e+01
 16.900      2.08178e+02      -2.04453e+00      -1.14172e+01       1.61236e-04       9.63335e+01
 17.000      2.08300e+02      -2.28857e+00      -1.09193e+01       1.58621e-04       9.48269e+01
 17.100      2.08417e+02      -2.52515e+00      -1.04497e+01       1.56056e-04       9.33460e+01
 17.200      2.08531e+02      -2.75488e+00      -1.00067e+01       1.53538e-04       9.18902e+01
 17.300      2.08642e+02      -2.97837e+00      -9.58864e+00       1.51066e-04       9.04586e+01
 17.400      2.08751e+02      -3.19625e+00      -9.19377e+00       1.48636e-04       8.90503e+01
 17.500      2.08860e+02      -3.40913e+00      -8.82042e+00       1.46247e-04       8.76645e+01
 17.600      2.08969e+02      -3.61763e+00      -8.46691e+00       1.43896e-04       8.63005e+01
 17.700      2.09080e+02      -3.82237e+00      -8.13155e+00       1.41582e-04       8.49575e+01
 17.800      2.09193e+02      -4.02397e+00      -7.81263e+00       1.39303e-04       8.36349e+01
 17.900      2.09309e+02      -4.22304e+00      -7.50847e+00       1.37056e-04       8.23320e+01
 18.000      2.09429e+02      -4.42020e+00      -7.21737e+00       1.34842e-04       8.10481e+01
 18.100      2.09555e+02      -4.61607e+00      -6.93764e+00       1.32657e-04       7.97826e+01
 18.200      2.09686e+02      -4.81127e+00      -6.66759e+00       1.30500e-04       7.85350e+01
 18.300      2.09825e+02      -5.00640e+00      -6.40554e+00       1.28371e-04       7.73047e+01
 18.400      2.09973e+02      -5.20211e+00      -6.14977e+00       1.26267e-04       7.60910e+01
 18.500      2.10129e+02      -5.39899e+00      -5.89861e+00       1.24187e-04       7.48936e+01
 18.600      2.10296e+02      -5.59766e+00      -5.65036e+00       1.22131e-04       7.37119e+01
 18.700      2.10474e+02      -5.79876e+00      -5.40332e+00       1.20097e-04       7.25454e+01
 18.800      2.10663e+02      -6.00288e+00      -5.15582e+00       1.18084e-04       7.13938e+01
 18.900      2.10867e+02      -6.21065e+00      -4.90615e+00       1.16090e-04       7.02564e+01
 19.000      2.11084e+02      -6.42256e+00      -4.65282e+00       1.14117e-04       6.91331e+01
 19.100      2.11314e+02      -6.63812e+00      -4.39590e+00       1.12164e-04       6.80239e+01
 19.200      2.11556e+02      -6.85632e+00      -4.13625e+00       1.10232e-04       6.69291e+01
 19.300      2.11809e+02      -7.07618e+00      -3.87472e+00       1.08324e-04       6.58491e+01
 19.400      2.12071e+02      -7.29672e+00      -3.61214e+00       1.06440e-04       6.47840e+01
 19.500      2.12341e+02      -7.51693e+00      -3.34938e+00       1.04582e-04       6.37342e+01
 19.600      2.12618e+02      -7.73583e+00      -3.08729e+00       1.02751e-04       6.26998e+01
 19.700      2.12900e+02      -7.95242e+00      -2.82671e+00       1.00947e-04       6.16811e+01
 19.800      2.13186e+02      -8.16572e+00      -2.56850e+00       9.91728e-05       6.06781e+01
 19.900      2.13474e+02      -8.37473e+00      -2.31349e+00       9.74279e-05       5.96911e+01
 20.000      2.13764e+02      -8.57847e+00      -2.06255e+00       9.57133e-05       5.87202e+01
 20.100      2.14053e+02      -8.77594e+00      -1.81653e+00       9.40298e-05       5.77655e+01
 20.200      2.14341e+02      -8.96616e+00      -1.57627e+00       9.23778e-05       5.68270e+01
 20.300      2.14626e+02      -9.14812e+00      -1.34262e+00       9.07581e-05       5.59049e+01
