# Data Source: NASA GEOS5 Near-Real-Time
# Model Time = 2010-12-19 18:00:00
# Location = [  39.7393, -104.9900 ]
# Fields = [ Z(km), T(K), U(m/s), V(m/s), R(g/cm3), P(mbar) ]
# Ground Height = 1.589
  0.000      2.94168e+02       1.47023e+00       3.48419e+00       1.18592e-03       1.00123e+03
  0.100      2.93534e+02       1.47183e+00       3.48845e+00       1.17459e-03       9.89524e+02
  0.200      2.92894e+02       1.47551e+00       3.49265e+00       1.16338e-03       9.77947e+02
  0.300      2.92242e+02       1.48343e+00       3.49607e+00       1.15232e-03       9.66490e+02
  0.400      2.91585e+02       1.49612e+00       3.49238e+00       1.14137e-03       9.55149e+02
  0.500      2.90933e+02       1.51302e+00       3.47295e+00       1.13048e-03       9.43925e+02
  0.600      2.90285e+02       1.52869e+00       3.44235e+00       1.11967e-03       9.32817e+02
  0.700      2.89624e+02       1.53342e+00       3.41674e+00       1.10900e-03       9.21823e+02
  0.800      2.88933e+02       1.52709e+00       3.39971e+00       1.09853e-03       9.10940e+02
  0.900      2.88197e+02       1.52648e+00       3.37218e+00       1.08831e-03       9.00168e+02
  1.000      2.87417e+02       1.54183e+00       3.31583e+00       1.07833e-03       8.89503e+02
  1.100      2.86680e+02       1.54889e+00       3.22514e+00       1.06827e-03       8.78946e+02
  1.200      2.86084e+02       1.51730e+00       3.10126e+00       1.05777e-03       8.68496e+02
  1.300      2.85576e+02       1.45641e+00       2.99121e+00       1.04704e-03       8.58154e+02
  1.400      2.85000e+02       1.40428e+00       2.97499e+00       1.03664e-03       8.47922e+02
  1.500      2.84283e+02       1.39213e+00       3.10308e+00       1.02685e-03       8.37801e+02
  1.600      2.83542e+02       1.43457e+00       3.35915e+00       1.01723e-03       8.27787e+02
  1.700      2.82908e+02       1.54376e+00       3.71331e+00       1.00730e-03       8.17877e+02
  1.800      2.82367e+02       1.72908e+00       4.09092e+00       9.97135e-04       8.08071e+02
  1.900      2.81823e+02       1.99836e+00       4.39234e+00       9.87059e-04       7.98366e+02
  2.000      2.81215e+02       2.34212e+00       4.53659e+00       9.77295e-04       7.88761e+02
  2.100      2.80551e+02       2.70896e+00       4.48876e+00       9.67793e-04       7.79250e+02
  2.200      2.79855e+02       3.04469e+00       4.22438e+00       9.58470e-04       7.69827e+02
  2.300      2.79131e+02       3.35935e+00       3.78452e+00       9.49301e-04       7.60491e+02
  2.400      2.78373e+02       3.71937e+00       3.26776e+00       9.40315e-04       7.51245e+02
  2.500      2.77576e+02       4.18518e+00       2.76663e+00       9.31525e-04       7.42093e+02
  2.600      2.76761e+02       4.76947e+00       2.32546e+00       9.22862e-04       7.33033e+02
  2.700      2.75956e+02       5.46717e+00       1.97057e+00       9.14226e-04       7.24062e+02
  2.800      2.75179e+02       6.27206e+00       1.71427e+00       9.05558e-04       7.15178e+02
  2.900      2.74413e+02       7.17471e+00       1.52786e+00       8.96913e-04       7.06377e+02
  3.000      2.73634e+02       8.16509e+00       1.37525e+00       8.88365e-04       6.97659e+02
  3.100      2.72833e+02       9.22881e+00       1.22634e+00       8.79940e-04       6.89021e+02
  3.200      2.72031e+02       1.03435e+01       1.06202e+00       8.71576e-04       6.80465e+02
  3.300      2.71249e+02       1.14858e+01       8.64783e-01       8.63207e-04       6.71993e+02
  3.400      2.70496e+02       1.26319e+01       6.36067e-01       8.54805e-04       6.63605e+02
  3.500      2.69762e+02       1.37567e+01       4.05019e-01       8.46401e-04       6.55298e+02
  3.600      2.69037e+02       1.48351e+01       2.02537e-01       8.38027e-04       6.47071e+02
  3.700      2.68320e+02       1.58484e+01       3.73052e-02       8.29686e-04       6.38924e+02
  3.800      2.67626e+02       1.67870e+01      -1.14301e-01       8.21338e-04       6.30858e+02
  3.900      2.66968e+02       1.76417e+01      -2.78229e-01       8.12944e-04       6.22876e+02
  4.000      2.66350e+02       1.84042e+01      -4.57384e-01       8.04497e-04       6.14978e+02
  4.100      2.65753e+02       1.90673e+01      -6.11959e-01       7.96058e-04       6.07161e+02
  4.200      2.65153e+02       1.96240e+01      -6.97520e-01       7.87693e-04       5.99427e+02
  4.300      2.64536e+02       2.00773e+01      -6.81947e-01       7.79449e-04       5.91772e+02
  4.400      2.63897e+02       2.04636e+01      -5.72565e-01       7.71333e-04       5.84196e+02
  4.500      2.63239e+02       2.08254e+01      -3.84578e-01       7.63340e-04       5.76700e+02
  4.600      2.62562e+02       2.12008e+01      -1.35541e-01       7.55465e-04       5.69282e+02
  4.700      2.61869e+02       2.15898e+01       1.37972e-01       7.47695e-04       5.61941e+02
  4.800      2.61166e+02       2.19738e+01       3.90161e-01       7.40014e-04       5.54675e+02
  4.900      2.60457e+02       2.23345e+01       5.75544e-01       7.32405e-04       5.47482e+02
  5.000      2.59747e+02       2.26669e+01       6.68745e-01       7.24855e-04       5.40360e+02
  5.100      2.59041e+02       2.29857e+01       6.74102e-01       7.17349e-04       5.33311e+02
  5.200      2.58344e+02       2.33074e+01       5.98344e-01       7.09877e-04       5.26336e+02
  5.300      2.57661e+02       2.36479e+01       4.46575e-01       7.02427e-04       5.19435e+02
  5.400      2.56991e+02       2.40204e+01       2.12160e-01       6.94999e-04       5.12608e+02
  5.500      2.56335e+02       2.44366e+01      -1.16695e-01       6.87598e-04       5.05853e+02
  5.600      2.55690e+02       2.49086e+01      -5.51791e-01       6.80227e-04       4.99171e+02
  5.700      2.55055e+02       2.54435e+01      -1.09514e+00       6.72890e-04       4.92560e+02
  5.800      2.54427e+02       2.60363e+01      -1.72171e+00       6.65594e-04       4.86020e+02
  5.900      2.53805e+02       2.66798e+01      -2.40179e+00       6.58343e-04       4.79550e+02
  6.000      2.53187e+02       2.73668e+01      -3.10576e+00       6.51143e-04       4.73151e+02
  6.100      2.52569e+02       2.80900e+01      -3.80890e+00       6.44002e-04       4.66820e+02
  6.200      2.51947e+02       2.88429e+01      -4.49502e+00       6.36934e-04       4.60559e+02
  6.300      2.51313e+02       2.96188e+01      -5.14882e+00       6.29953e-04       4.54365e+02
  6.400      2.50664e+02       3.04111e+01      -5.75504e+00       6.23071e-04       4.48240e+02
  6.500      2.49995e+02       3.12144e+01      -6.30610e+00       6.16294e-04       4.42182e+02
  6.600      2.49311e+02       3.20263e+01      -6.80779e+00       6.09610e-04       4.36190e+02
  6.700      2.48616e+02       3.28442e+01      -7.26723e+00       6.03010e-04       4.30264e+02
  6.800      2.47912e+02       3.36659e+01      -7.69155e+00       5.96483e-04       4.24402e+02
  6.900      2.47204e+02       3.44907e+01      -8.08652e+00       5.90019e-04       4.18604e+02
  7.000      2.46495e+02       3.53237e+01      -8.45390e+00       5.83609e-04       4.12869e+02
  7.100      2.45789e+02       3.61706e+01      -8.79473e+00       5.77244e-04       4.07196e+02
  7.200      2.45089e+02       3.70374e+01      -9.11003e+00       5.70918e-04       4.01586e+02
  7.300      2.44397e+02       3.79293e+01      -9.40089e+00       5.64621e-04       3.96037e+02
  7.400      2.43715e+02       3.88429e+01      -9.66907e+00       5.58356e-04       3.90549e+02
  7.500      2.43041e+02       3.97702e+01      -9.91664e+00       5.52126e-04       3.85123e+02
  7.600      2.42372e+02       4.07030e+01      -1.01457e+01       5.45936e-04       3.79757e+02
  7.700      2.41707e+02       4.16333e+01      -1.03584e+01       5.39789e-04       3.74451e+02
  7.800      2.41044e+02       4.25542e+01      -1.05553e+01       5.33692e-04       3.69206e+02
  7.900      2.40378e+02       4.34619e+01      -1.07325e+01       5.27653e-04       3.64020e+02
  8.000      2.39704e+02       4.43535e+01      -1.08852e+01       5.21685e-04       3.58893e+02
  8.100      2.39016e+02       4.52259e+01      -1.10088e+01       5.15796e-04       3.53824e+02
  8.200      2.38309e+02       4.60762e+01      -1.10985e+01       5.09998e-04       3.48811e+02
  8.300      2.37582e+02       4.69047e+01      -1.11535e+01       5.04290e-04       3.43855e+02
  8.400      2.36840e+02       4.77186e+01      -1.11810e+01       4.98661e-04       3.38955e+02
  8.500      2.36089e+02       4.85262e+01      -1.11889e+01       4.93094e-04       3.34109e+02
  8.600      2.35337e+02       4.93354e+01      -1.11853e+01       4.87576e-04       3.29317e+02
  8.700      2.34589e+02       5.01544e+01      -1.11782e+01       4.82093e-04       3.24579e+02
  8.800      2.33850e+02       5.09876e+01      -1.11764e+01       4.76635e-04       3.19893e+02
  8.900      2.33118e+02       5.18277e+01      -1.11905e+01       4.71207e-04       3.15261e+02
  9.000      2.32391e+02       5.26656e+01      -1.12317e+01       4.65814e-04       3.10681e+02
  9.100      2.31665e+02       5.34919e+01      -1.13113e+01       4.60465e-04       3.06154e+02
  9.200      2.30939e+02       5.42974e+01      -1.14402e+01       4.55164e-04       3.01680e+02
  9.300      2.30208e+02       5.50730e+01      -1.16281e+01       4.49918e-04       2.97259e+02
  9.400      2.29470e+02       5.58140e+01      -1.18610e+01       4.44731e-04       2.92890e+02
  9.500      2.28722e+02       5.65191e+01      -1.21078e+01       4.39608e-04       2.88572e+02
  9.600      2.27961e+02       5.71867e+01      -1.23373e+01       4.34552e-04       2.84304e+02
  9.700      2.27184e+02       5.78154e+01      -1.25181e+01       4.29567e-04       2.80085e+02
  9.800      2.26388e+02       5.84038e+01      -1.26189e+01       4.24656e-04       2.75914e+02
  9.900      2.25571e+02       5.89509e+01      -1.26141e+01       4.19823e-04       2.71789e+02
 10.000      2.24737e+02       5.94594e+01      -1.25248e+01       4.15058e-04       2.67711e+02
 10.100      2.23893e+02       5.99338e+01      -1.23941e+01       4.10347e-04       2.63678e+02
 10.200      2.23046e+02       6.03788e+01      -1.22652e+01       4.05679e-04       2.59692e+02
 10.300      2.22202e+02       6.07987e+01      -1.21813e+01       4.01039e-04       2.55751e+02
 10.400      2.21370e+02       6.11981e+01      -1.21856e+01       3.96416e-04       2.51855e+02
 10.500      2.20555e+02       6.15815e+01      -1.23189e+01       3.91798e-04       2.48005e+02
 10.600      2.19762e+02       6.19503e+01      -1.25715e+01       3.87179e-04       2.44201e+02
 10.700      2.18992e+02       6.23038e+01      -1.28852e+01       3.82559e-04       2.40441e+02
 10.800      2.18247e+02       6.26407e+01      -1.32002e+01       3.77935e-04       2.36727e+02
 10.900      2.17528e+02       6.29601e+01      -1.34567e+01       3.73308e-04       2.33058e+02
 11.000      2.16837e+02       6.32609e+01      -1.35947e+01       3.68676e-04       2.29435e+02
 11.100      2.16174e+02       6.35421e+01      -1.35542e+01       3.64040e-04       2.25858e+02
 11.200      2.15542e+02       6.38012e+01      -1.32844e+01       3.59399e-04       2.22326e+02
 11.300      2.14936e+02       6.40250e+01      -1.28090e+01       3.54759e-04       2.18839e+02
 11.400      2.14355e+02       6.41950e+01      -1.21896e+01       3.50128e-04       2.15398e+02
 11.500      2.13793e+02       6.42922e+01      -1.14880e+01       3.45513e-04       2.12001e+02
 11.600      2.13246e+02       6.42980e+01      -1.07661e+01       3.40922e-04       2.08650e+02
 11.700      2.12711e+02       6.41937e+01      -1.00857e+01       3.36362e-04       2.05343e+02
 11.800      2.12184e+02       6.39605e+01      -9.50858e+00       3.31841e-04       2.02081e+02
 11.900      2.11661e+02       6.35799e+01      -9.09597e+00       3.27363e-04       1.98862e+02
 12.000      2.11142e+02       6.30452e+01      -8.87092e+00       3.22929e-04       1.95688e+02
 12.100      2.10636e+02       6.23670e+01      -8.80105e+00       3.18527e-04       1.92558e+02
 12.200      2.10151e+02       6.15573e+01      -8.84952e+00       3.14144e-04       1.89471e+02
 12.300      2.09696e+02       6.06280e+01      -8.97950e+00       3.09769e-04       1.86428e+02
 12.400      2.09279e+02       5.95912e+01      -9.15416e+00       3.05392e-04       1.83428e+02
 12.500      2.08908e+02       5.84588e+01      -9.33669e+00       3.01002e-04       1.80471e+02
 12.600      2.08592e+02       5.72427e+01      -9.49026e+00       2.96590e-04       1.77556e+02
 12.700      2.08340e+02       5.59551e+01      -9.57805e+00       2.92146e-04       1.74685e+02
 12.800      2.08155e+02       5.46080e+01      -9.57489e+00       2.87670e-04       1.71855e+02
 12.900      2.08029e+02       5.32151e+01      -9.48921e+00       2.83177e-04       1.69069e+02
 13.000      2.07949e+02       5.17898e+01      -9.33544e+00       2.78687e-04       1.66324e+02
 13.100      2.07904e+02       5.03456e+01      -9.12799e+00       2.74219e-04       1.63622e+02
 13.200      2.07884e+02       4.88963e+01      -8.88130e+00       2.69789e-04       1.60963e+02
 13.300      2.07876e+02       4.74552e+01      -8.60979e+00       2.65414e-04       1.58347e+02
 13.400      2.07868e+02       4.60360e+01      -8.32789e+00       2.61109e-04       1.55773e+02
 13.500      2.07850e+02       4.46523e+01      -8.05003e+00       2.56888e-04       1.53242e+02
 13.600      2.07811e+02       4.33175e+01      -7.79063e+00       2.52764e-04       1.50753e+02
 13.700      2.07738e+02       4.20447e+01      -7.56295e+00       2.48749e-04       1.48306e+02
 13.800      2.07633e+02       4.08405e+01      -7.36794e+00       2.44837e-04       1.45900e+02
 13.900      2.07502e+02       3.97078e+01      -7.19917e+00       2.41018e-04       1.43534e+02
 14.000      2.07351e+02       3.86494e+01      -7.05010e+00       2.37281e-04       1.41205e+02
 14.100      2.07186e+02       3.76680e+01      -6.91421e+00       2.33614e-04       1.38913e+02
 14.200      2.07014e+02       3.67664e+01      -6.78497e+00       2.30008e-04       1.36655e+02
 14.300      2.06842e+02       3.59475e+01      -6.65584e+00       2.26453e-04       1.34431e+02
 14.400      2.06674e+02       3.52141e+01      -6.52029e+00       2.22940e-04       1.32238e+02
 14.500      2.06519e+02       3.45690e+01      -6.37180e+00       2.19461e-04       1.30076e+02
 14.600      2.06381e+02       3.40149e+01      -6.20382e+00       2.16007e-04       1.27944e+02
 14.700      2.06269e+02       3.35546e+01      -6.00984e+00       2.12571e-04       1.25840e+02
 14.800      2.06186e+02       3.31905e+01      -5.78373e+00       2.09147e-04       1.23764e+02
 14.900      2.06135e+02       3.29171e+01      -5.52567e+00       2.05735e-04       1.21715e+02
 15.000      2.06113e+02       3.27228e+01      -5.24073e+00       2.02343e-04       1.19695e+02
 15.100      2.06118e+02       3.25959e+01      -4.93409e+00       1.98975e-04       1.17705e+02
 15.200      2.06145e+02       3.25246e+01      -4.61095e+00       1.95638e-04       1.15746e+02
 15.300      2.06193e+02       3.24974e+01      -4.27649e+00       1.92337e-04       1.13820e+02
 15.400      2.06259e+02       3.25025e+01      -3.93590e+00       1.89077e-04       1.11927e+02
 15.500      2.06339e+02       3.25283e+01      -3.59438e+00       1.85864e-04       1.10067e+02
 15.600      2.06432e+02       3.25629e+01      -3.25710e+00       1.82700e-04       1.08243e+02
 15.700      2.06534e+02       3.25947e+01      -2.92927e+00       1.79591e-04       1.06453e+02
 15.800      2.06642e+02       3.26120e+01      -2.61606e+00       1.76541e-04       1.04700e+02
 15.900      2.06754e+02       3.26031e+01      -2.32268e+00       1.73551e-04       1.02983e+02
 16.000      2.06867e+02       3.25564e+01      -2.05430e+00       1.70626e-04       1.01302e+02
 16.100      2.06978e+02       3.24601e+01      -1.81611e+00       1.67769e-04       9.96593e+01
 16.200      2.07085e+02       3.23067e+01      -1.61121e+00       1.64980e-04       9.80531e+01
 16.300      2.07188e+02       3.20981e+01      -1.43817e+00       1.62256e-04       9.64823e+01
 16.400      2.07287e+02       3.18373e+01      -1.29496e+00       1.59595e-04       9.49450e+01
 16.500      2.07382e+02       3.15272e+01      -1.17957e+00       1.56992e-04       9.34396e+01
 16.600      2.07474e+02       3.11709e+01      -1.08998e+00       1.54445e-04       9.19645e+01
 16.700      2.07562e+02       3.07713e+01      -1.02416e+00       1.51952e-04       9.05181e+01
 16.800      2.07646e+02       3.03313e+01      -9.80099e-01       1.49509e-04       8.90992e+01
 16.900      2.07727e+02       2.98541e+01      -9.55771e-01       1.47114e-04       8.77061e+01
 17.000      2.07805e+02       2.93426e+01      -9.49157e-01       1.44765e-04       8.63378e+01
 17.100      2.07879e+02       2.87998e+01      -9.58237e-01       1.42459e-04       8.49927e+01
 17.200      2.07951e+02       2.82286e+01      -9.80988e-01       1.40193e-04       8.36699e+01
 17.300      2.08019e+02       2.76321e+01      -1.01539e+00       1.37967e-04       8.23682e+01
 17.400      2.08085e+02       2.70132e+01      -1.05942e+00       1.35777e-04       8.10864e+01
 17.500      2.08148e+02       2.63750e+01      -1.11107e+00       1.33622e-04       7.98235e+01
 17.600      2.08208e+02       2.57203e+01      -1.16830e+00       1.31500e-04       7.85786e+01
 17.700      2.08266e+02       2.50523e+01      -1.22911e+00       1.29409e-04       7.73507e+01
 17.800      2.08322e+02       2.43739e+01      -1.29146e+00       1.27347e-04       7.61389e+01
 17.900      2.08375e+02       2.36881e+01      -1.35333e+00       1.25314e-04       7.49424e+01
 18.000      2.08426e+02       2.29978e+01      -1.41272e+00       1.23307e-04       7.37603e+01
 18.100      2.08475e+02       2.23062e+01      -1.46759e+00       1.21326e-04       7.25920e+01
 18.200      2.08522e+02       2.16160e+01      -1.51593e+00       1.19368e-04       7.14366e+01
 18.300      2.08567e+02       2.09305e+01      -1.55571e+00       1.17433e-04       7.02937e+01
 18.400      2.08610e+02       2.02523e+01      -1.58511e+00       1.15519e-04       6.91624e+01
 18.500      2.08652e+02       1.95833e+01      -1.60416e+00       1.13627e-04       6.80432e+01
 18.600      2.08692e+02       1.89248e+01      -1.61382e+00       1.11757e-04       6.69364e+01
 18.700      2.08731e+02       1.82780e+01      -1.61506e+00       1.09910e-04       6.58426e+01
 18.800      2.08770e+02       1.76440e+01      -1.60887e+00       1.08087e-04       6.47624e+01
 18.900      2.08807e+02       1.70241e+01      -1.59624e+00       1.06289e-04       6.36961e+01
 19.000      2.08843e+02       1.64196e+01      -1.57814e+00       1.04515e-04       6.26441e+01
 19.100      2.08879e+02       1.58317e+01      -1.55555e+00       1.02766e-04       6.16068e+01
 19.200      2.08915e+02       1.52615e+01      -1.52945e+00       1.01044e-04       6.05846e+01
 19.300      2.08951e+02       1.47103e+01      -1.50082e+00       9.93476e-05       5.95777e+01
 19.400      2.08986e+02       1.41794e+01      -1.47065e+00       9.76779e-05       5.85863e+01
 19.500      2.09022e+02       1.36699e+01      -1.43991e+00       9.60351e-05       5.76109e+01
 19.600      2.09059e+02       1.31831e+01      -1.40959e+00       9.44194e-05       5.66515e+01
 19.700      2.09096e+02       1.27203e+01      -1.38067e+00       9.28312e-05       5.57084e+01
 19.800      2.09133e+02       1.22825e+01      -1.35412e+00       9.12705e-05       5.47817e+01
 19.900      2.09172e+02       1.18711e+01      -1.33092e+00       8.97376e-05       5.38715e+01
 20.000      2.09211e+02       1.14873e+01      -1.31207e+00       8.82325e-05       5.29780e+01
 20.100      2.09252e+02       1.11323e+01      -1.29853e+00       8.67553e-05       5.21013e+01
 20.200      2.09295e+02       1.08074e+01      -1.29129e+00       8.53062e-05       5.12414e+01
 20.300      2.09339e+02       1.05137e+01      -1.29134e+00       8.38851e-05       5.03984e+01
