# Data Source: NASA MERRA (version 2)
# Model Time = 2011-03-21 18:00:00
# Location = [  39.1026,  -84.5123 ]
# Fields = [ Z(km), T(K), U(m/s), V(m/s), R(g/cm3), P(mbar) ]
# Ground Height = 0.165
  0.000      2.96296e+02       4.48042e+00       1.84249e+00       1.19527e-03       1.01642e+03
  0.100      2.95708e+02       5.16970e+00       2.04485e+00       1.18390e-03       1.00476e+03
  0.200      2.95145e+02       5.79762e+00       2.24295e+00       1.17255e-03       9.93229e+02
  0.300      2.94547e+02       6.51340e+00       2.44715e+00       1.16145e-03       9.81832e+02
  0.400      2.93856e+02       7.46076e+00       2.66677e+00       1.15082e-03       9.70563e+02
  0.500      2.93070e+02       8.56399e+00       2.87012e+00       1.14065e-03       9.59414e+02
  0.600      2.92258e+02       9.45894e+00       2.97156e+00       1.13065e-03       9.48370e+02
  0.700      2.91453e+02       9.91588e+00       2.92839e+00       1.12069e-03       9.37420e+02
  0.800      2.90583e+02       1.01035e+01       2.81834e+00       1.11102e-03       9.26560e+02
  0.900      2.89592e+02       1.02383e+01       2.70908e+00       1.10186e-03       9.15790e+02
  1.000      2.88617e+02       1.04396e+01       2.48693e+00       1.09270e-03       9.05114e+02
  1.100      2.87863e+02       1.07863e+01       1.97658e+00       1.08276e-03       8.94542e+02
  1.200      2.87373e+02       1.12932e+01       1.16792e+00       1.07192e-03       8.84075e+02
  1.300      2.87037e+02       1.19132e+01       2.08754e-01       1.06059e-03       8.73711e+02
  1.400      2.86736e+02       1.25973e+01      -7.46797e-01       1.04923e-03       8.63445e+02
  1.500      2.86355e+02       1.32960e+01      -1.54461e+00       1.03825e-03       8.53274e+02
  1.600      2.85786e+02       1.39629e+01      -2.04312e+00       1.02803e-03       8.43195e+02
  1.700      2.85025e+02       1.45825e+01      -2.24169e+00       1.01857e-03       8.33207e+02
  1.800      2.84130e+02       1.51593e+01      -2.22838e+00       1.00963e-03       8.23309e+02
  1.900      2.83165e+02       1.56977e+01      -2.09260e+00       1.00100e-03       8.13500e+02
  2.000      2.82191e+02       1.62023e+01      -1.92378e+00       9.92458e-04       8.03779e+02
  2.100      2.81266e+02       1.66771e+01      -1.80772e+00       9.83790e-04       7.94147e+02
  2.200      2.80411e+02       1.71187e+01      -1.77795e+00       9.74929e-04       7.84604e+02
  2.300      2.79619e+02       1.75178e+01      -1.82869e+00       9.65908e-04       7.75147e+02
  2.400      2.78881e+02       1.78650e+01      -1.95319e+00       9.56760e-04       7.65779e+02
  2.500      2.78188e+02       1.81511e+01      -2.14469e+00       9.47518e-04       7.56497e+02
  2.600      2.77531e+02       1.83668e+01      -2.39639e+00       9.38216e-04       7.47302e+02
  2.700      2.76902e+02       1.85128e+01      -2.69593e+00       9.28885e-04       7.38194e+02
  2.800      2.76291e+02       1.86074e+01      -3.02145e+00       9.19565e-04       7.29174e+02
  2.900      2.75686e+02       1.86701e+01      -3.35016e+00       9.10293e-04       7.20240e+02
  3.000      2.75077e+02       1.87209e+01      -3.65925e+00       9.01103e-04       7.11394e+02
  3.100      2.74453e+02       1.87794e+01      -3.92592e+00       8.92031e-04       7.02636e+02
  3.200      2.73806e+02       1.88645e+01      -4.12921e+00       8.83106e-04       6.93966e+02
  3.300      2.73136e+02       1.89854e+01      -4.26730e+00       8.74323e-04       6.85383e+02
  3.400      2.72451e+02       1.91453e+01      -4.34978e+00       8.65656e-04       6.76885e+02
  3.500      2.71757e+02       1.93475e+01      -4.38639e+00       8.57078e-04       6.68472e+02
  3.600      2.71063e+02       1.95952e+01      -4.38686e+00       8.48565e-04       6.60141e+02
  3.700      2.70375e+02       1.98917e+01      -4.36092e+00       8.40093e-04       6.51892e+02
  3.800      2.69701e+02       2.02392e+01      -4.31836e+00       8.31640e-04       6.43724e+02
  3.900      2.69039e+02       2.06317e+01      -4.26929e+00       8.23211e-04       6.35636e+02
  4.000      2.68385e+02       2.10587e+01      -4.22401e+00       8.14820e-04       6.27628e+02
  4.100      2.67736e+02       2.15102e+01      -4.19283e+00       8.06482e-04       6.19701e+02
  4.200      2.67085e+02       2.19758e+01      -4.18603e+00       7.98210e-04       6.11855e+02
  4.300      2.66430e+02       2.24453e+01      -4.21393e+00       7.90017e-04       6.04090e+02
  4.400      2.65766e+02       2.29087e+01      -4.28644e+00       7.81916e-04       5.96405e+02
  4.500      2.65091e+02       2.33628e+01      -4.40357e+00       7.73912e-04       5.88801e+02
  4.600      2.64407e+02       2.38118e+01      -4.55458e+00       7.65997e-04       5.81276e+02
  4.700      2.63716e+02       2.42601e+01      -4.72820e+00       7.58165e-04       5.73828e+02
  4.800      2.63018e+02       2.47124e+01      -4.91312e+00       7.50411e-04       5.66456e+02
  4.900      2.62316e+02       2.51731e+01      -5.09809e+00       7.42727e-04       5.59159e+02
  5.000      2.61611e+02       2.56468e+01      -5.27180e+00       7.35109e-04       5.51936e+02
  5.100      2.60904e+02       2.61371e+01      -5.42422e+00       7.27550e-04       5.44785e+02
  5.200      2.60198e+02       2.66390e+01      -5.55669e+00       7.20046e-04       5.37707e+02
  5.300      2.59494e+02       2.71429e+01      -5.67679e+00       7.12593e-04       5.30701e+02
  5.400      2.58793e+02       2.76390e+01      -5.79213e+00       7.05188e-04       5.23768e+02
  5.500      2.58098e+02       2.81178e+01      -5.91034e+00       6.97825e-04       5.16909e+02
  5.600      2.57411e+02       2.85694e+01      -6.03905e+00       6.90502e-04       5.10122e+02
  5.700      2.56733e+02       2.89844e+01      -6.18588e+00       6.83215e-04       5.03408e+02
  5.800      2.56066e+02       2.93531e+01      -6.35826e+00       6.75960e-04       4.96768e+02
  5.900      2.55409e+02       2.96730e+01      -6.55891e+00       6.68739e-04       4.90201e+02
  6.000      2.54760e+02       2.99484e+01      -6.78567e+00       6.61557e-04       4.83704e+02
  6.100      2.54116e+02       3.01838e+01      -7.03618e+00       6.54419e-04       4.77277e+02
  6.200      2.53475e+02       3.03840e+01      -7.30806e+00       6.47332e-04       4.70917e+02
  6.300      2.52834e+02       3.05535e+01      -7.59893e+00       6.40299e-04       4.64623e+02
  6.400      2.52191e+02       3.06969e+01      -7.90643e+00       6.33326e-04       4.58394e+02
  6.500      2.51542e+02       3.08189e+01      -8.22818e+00       6.26419e-04       4.52228e+02
  6.600      2.50886e+02       3.09238e+01      -8.56165e+00       6.19580e-04       4.46124e+02
  6.700      2.50220e+02       3.10140e+01      -8.90251e+00       6.12816e-04       4.40083e+02
  6.800      2.49546e+02       3.10898e+01      -9.24511e+00       6.06129e-04       4.34107e+02
  6.900      2.48862e+02       3.11518e+01      -9.58378e+00       5.99523e-04       4.28199e+02
  7.000      2.48168e+02       3.12004e+01      -9.91285e+00       5.93002e-04       4.22361e+02
  7.100      2.47465e+02       3.12363e+01      -1.02267e+01       5.86568e-04       4.16596e+02
  7.200      2.46752e+02       3.12599e+01      -1.05195e+01       5.80226e-04       4.10904e+02
  7.300      2.46029e+02       3.12716e+01      -1.07858e+01       5.73978e-04       4.05288e+02
  7.400      2.45296e+02       3.12721e+01      -1.10198e+01       5.67827e-04       3.99750e+02
  7.500      2.44552e+02       3.12627e+01      -1.12175e+01       5.61772e-04       3.94288e+02
  7.600      2.43798e+02       3.12488e+01      -1.13804e+01       5.55799e-04       3.88894e+02
  7.700      2.43035e+02       3.12362e+01      -1.15114e+01       5.49893e-04       3.83557e+02
  7.800      2.42263e+02       3.12308e+01      -1.16133e+01       5.44040e-04       3.78267e+02
  7.900      2.41481e+02       3.12386e+01      -1.16889e+01       5.38223e-04       3.73016e+02
  8.000      2.40691e+02       3.12656e+01      -1.17409e+01       5.32431e-04       3.67795e+02
  8.100      2.39893e+02       3.13176e+01      -1.17723e+01       5.26650e-04       3.62595e+02
  8.200      2.39087e+02       3.14007e+01      -1.17857e+01       5.20866e-04       3.57408e+02
  8.300      2.38274e+02       3.15207e+01      -1.17841e+01       5.15069e-04       3.52229e+02
  8.400      2.37454e+02       3.16832e+01      -1.17702e+01       5.09248e-04       3.47050e+02
  8.500      2.36629e+02       3.18869e+01      -1.17485e+01       5.03420e-04       3.41884e+02
  8.600      2.35799e+02       3.21251e+01      -1.17244e+01       4.97618e-04       3.36760e+02
  8.700      2.34968e+02       3.23907e+01      -1.17034e+01       4.91878e-04       3.31702e+02
  8.800      2.34136e+02       3.26767e+01      -1.16911e+01       4.86234e-04       3.26735e+02
  8.900      2.33307e+02       3.29761e+01      -1.16930e+01       4.80715e-04       3.21882e+02
  9.000      2.32481e+02       3.32819e+01      -1.17147e+01       4.75352e-04       3.17165e+02
  9.100      2.31662e+02       3.35871e+01      -1.17617e+01       4.70174e-04       3.12604e+02
  9.200      2.30849e+02       3.38847e+01      -1.18394e+01       4.65207e-04       3.08217e+02
  9.300      2.30047e+02       3.41677e+01      -1.19536e+01       4.60477e-04       3.04022e+02
  9.400      2.29255e+02       3.44289e+01      -1.21096e+01       4.56009e-04       3.00037e+02
  9.500      2.28477e+02       3.46632e+01      -1.23115e+01       4.51818e-04       2.96271e+02
  9.600      2.27711e+02       3.48715e+01      -1.25567e+01       4.47880e-04       2.92704e+02
  9.700      2.26958e+02       3.50568e+01      -1.28412e+01       4.44160e-04       2.89312e+02
  9.800      2.26215e+02       3.52218e+01      -1.31608e+01       4.40628e-04       2.86072e+02
  9.900      2.25484e+02       3.53695e+01      -1.35112e+01       4.37251e-04       2.82962e+02
 10.000      2.24762e+02       3.55027e+01      -1.38885e+01       4.34000e-04       2.79959e+02
 10.100      2.24049e+02       3.56243e+01      -1.42883e+01       4.30847e-04       2.77044e+02
 10.200      2.23345e+02       3.57370e+01      -1.47067e+01       4.27763e-04       2.74197e+02
 10.300      2.22649e+02       3.58438e+01      -1.51394e+01       4.24721e-04       2.71398e+02
 10.400      2.21960e+02       3.59475e+01      -1.55822e+01       4.21695e-04       2.68631e+02
 10.500      2.21278e+02       3.60510e+01      -1.60311e+01       4.18659e-04       2.65876e+02
 10.600      2.20601e+02       3.61570e+01      -1.64819e+01       4.15587e-04       2.63119e+02
 10.700      2.19929e+02       3.62685e+01      -1.69305e+01       4.12457e-04       2.60342e+02
 10.800      2.19262e+02       3.63882e+01      -1.73726e+01       4.09244e-04       2.57530e+02
 10.900      2.18599e+02       3.65191e+01      -1.78041e+01       4.05926e-04       2.54669e+02
 11.000      2.17939e+02       3.66641e+01      -1.82210e+01       4.02481e-04       2.51745e+02
 11.100      2.17281e+02       3.68257e+01      -1.86190e+01       3.98889e-04       2.48745e+02
 11.200      2.16626e+02       3.70038e+01      -1.89961e+01       3.95139e-04       2.45664e+02
 11.300      2.15978e+02       3.71943e+01      -1.93524e+01       3.91228e-04       2.42505e+02
 11.400      2.15338e+02       3.73928e+01      -1.96882e+01       3.87156e-04       2.39270e+02
 11.500      2.14711e+02       3.75949e+01      -2.00039e+01       3.82923e-04       2.35965e+02
 11.600      2.14099e+02       3.77962e+01      -2.02998e+01       3.78530e-04       2.32593e+02
 11.700      2.13505e+02       3.79925e+01      -2.05763e+01       3.73976e-04       2.29157e+02
 11.800      2.12931e+02       3.81794e+01      -2.08336e+01       3.69263e-04       2.25662e+02
 11.900      2.12382e+02       3.83525e+01      -2.10722e+01       3.64394e-04       2.22111e+02
 12.000      2.11859e+02       3.85075e+01      -2.12924e+01       3.59368e-04       2.18509e+02
 12.100      2.11367e+02       3.86399e+01      -2.14946e+01       3.54189e-04       2.14859e+02
 12.200      2.10907e+02       3.87455e+01      -2.16789e+01       3.48861e-04       2.11166e+02
 12.300      2.10482e+02       3.88199e+01      -2.18459e+01       3.43385e-04       2.07434e+02
 12.400      2.10097e+02       3.88587e+01      -2.19958e+01       3.37767e-04       2.03666e+02
 12.500      2.09753e+02       3.88576e+01      -2.21291e+01       3.32010e-04       1.99867e+02
 12.600      2.09452e+02       3.88138e+01      -2.22456e+01       3.26124e-04       1.96042e+02
 12.700      2.09193e+02       3.87297e+01      -2.23444e+01       3.20140e-04       1.92207e+02
 12.800      2.08973e+02       3.86090e+01      -2.24241e+01       3.14090e-04       1.88377e+02
 12.900      2.08789e+02       3.84557e+01      -2.24834e+01       3.08005e-04       1.84564e+02
 13.000      2.08637e+02       3.82732e+01      -2.25210e+01       3.01913e-04       1.80782e+02
 13.100      2.08515e+02       3.80655e+01      -2.25356e+01       2.95843e-04       1.77043e+02
 13.200      2.08420e+02       3.78363e+01      -2.25259e+01       2.89818e-04       1.73359e+02
 13.300      2.08350e+02       3.75893e+01      -2.24905e+01       2.83863e-04       1.69739e+02
 13.400      2.08300e+02       3.73282e+01      -2.24282e+01       2.77998e-04       1.66193e+02
 13.500      2.08269e+02       3.70567e+01      -2.23375e+01       2.72244e-04       1.62729e+02
 13.600      2.08254e+02       3.67787e+01      -2.22173e+01       2.66619e-04       1.59355e+02
 13.700      2.08251e+02       3.64979e+01      -2.20662e+01       2.61139e-04       1.56078e+02
 13.800      2.08258e+02       3.62180e+01      -2.18828e+01       2.55820e-04       1.52903e+02
 13.900      2.08272e+02       3.59427e+01      -2.16659e+01       2.50673e-04       1.49837e+02
 14.000      2.08290e+02       3.56748e+01      -2.14148e+01       2.45709e-04       1.46883e+02
 14.100      2.08312e+02       3.54137e+01      -2.11314e+01       2.40919e-04       1.44035e+02
 14.200      2.08338e+02       3.51578e+01      -2.08178e+01       2.36295e-04       1.41288e+02
 14.300      2.08367e+02       3.49059e+01      -2.04765e+01       2.31827e-04       1.38636e+02
 14.400      2.08400e+02       3.46566e+01      -2.01098e+01       2.27508e-04       1.36074e+02
 14.500      2.08435e+02       3.44084e+01      -1.97199e+01       2.23328e-04       1.33597e+02
 14.600      2.08474e+02       3.41600e+01      -1.93091e+01       2.19280e-04       1.31200e+02
 14.700      2.08516e+02       3.39099e+01      -1.88797e+01       2.15358e-04       1.28879e+02
 14.800      2.08560e+02       3.36569e+01      -1.84341e+01       2.11553e-04       1.26629e+02
 14.900      2.08606e+02       3.33994e+01      -1.79745e+01       2.07861e-04       1.24447e+02
 15.000      2.08655e+02       3.31361e+01      -1.75033e+01       2.04275e-04       1.22328e+02
 15.100      2.08706e+02       3.28657e+01      -1.70227e+01       2.00788e-04       1.20269e+02
 15.200      2.08759e+02       3.25866e+01      -1.65350e+01       1.97395e-04       1.18267e+02
 15.300      2.08813e+02       3.22976e+01      -1.60426e+01       1.94092e-04       1.16318e+02
 15.400      2.08869e+02       3.19972e+01      -1.55477e+01       1.90873e-04       1.14419e+02
 15.500      2.08926e+02       3.16841e+01      -1.50526e+01       1.87732e-04       1.12568e+02
 15.600      2.08984e+02       3.13568e+01      -1.45597e+01       1.84667e-04       1.10761e+02
 15.700      2.09044e+02       3.10140e+01      -1.40712e+01       1.81672e-04       1.08995e+02
 15.800      2.09104e+02       3.06543e+01      -1.35895e+01       1.78743e-04       1.07269e+02
 15.900      2.09164e+02       3.02762e+01      -1.31168e+01       1.75877e-04       1.05579e+02
 16.000      2.09225e+02       2.98785e+01      -1.26554e+01       1.73069e-04       1.03924e+02
 16.100      2.09286e+02       2.94596e+01      -1.22077e+01       1.70316e-04       1.02301e+02
 16.200      2.09348e+02       2.90182e+01      -1.17759e+01       1.67615e-04       1.00708e+02
 16.300      2.09409e+02       2.85531e+01      -1.13623e+01       1.64963e-04       9.91433e+01
 16.400      2.09469e+02       2.80644e+01      -1.09677e+01       1.62357e-04       9.76054e+01
 16.500      2.09530e+02       2.75537e+01      -1.05916e+01       1.59796e-04       9.60935e+01
 16.600      2.09591e+02       2.70229e+01      -1.02337e+01       1.57277e-04       9.46065e+01
 16.700      2.09653e+02       2.64734e+01      -9.89334e+00       1.54800e-04       9.31437e+01
 16.800      2.09714e+02       2.59070e+01      -9.57018e+00       1.52363e-04       9.17043e+01
 16.900      2.09777e+02       2.53254e+01      -9.26371e+00       1.49964e-04       9.02875e+01
 17.000      2.09840e+02       2.47302e+01      -8.97349e+00       1.47603e-04       8.88925e+01
 17.100      2.09905e+02       2.41231e+01      -8.69904e+00       1.45277e-04       8.75188e+01
 17.200      2.09970e+02       2.35057e+01      -8.43990e+00       1.42986e-04       8.61655e+01
 17.300      2.10037e+02       2.28798e+01      -8.19561e+00       1.40728e-04       8.48321e+01
 17.400      2.10106e+02       2.22469e+01      -7.96570e+00       1.38503e-04       8.35178e+01
 17.500      2.10176e+02       2.16089e+01      -7.74971e+00       1.36309e-04       8.22222e+01
 17.600      2.10248e+02       2.09672e+01      -7.54717e+00       1.34145e-04       8.09446e+01
 17.700      2.10322e+02       2.03237e+01      -7.35762e+00       1.32010e-04       7.96844e+01
 17.800      2.10398e+02       1.96799e+01      -7.18060e+00       1.29904e-04       7.84412e+01
 17.900      2.10476e+02       1.90376e+01      -7.01564e+00       1.27824e-04       7.72144e+01
 18.000      2.10557e+02       1.83984e+01      -6.86228e+00       1.25772e-04       7.60036e+01
 18.100      2.10641e+02       1.77639e+01      -6.72005e+00       1.23744e-04       7.48082e+01
 18.200      2.10727e+02       1.71360e+01      -6.58849e+00       1.21742e-04       7.36279e+01
 18.300      2.10817e+02       1.65161e+01      -6.46713e+00       1.19764e-04       7.24622e+01
 18.400      2.10909e+02       1.59060e+01      -6.35551e+00       1.17809e-04       7.13107e+01
 18.500      2.11005e+02       1.53074e+01      -6.25317e+00       1.15876e-04       7.01730e+01
 18.600      2.11105e+02       1.47217e+01      -6.15965e+00       1.13966e-04       6.90488e+01
 18.700      2.11207e+02       1.41497e+01      -6.07457e+00       1.12079e-04       6.79383e+01
 18.800      2.11313e+02       1.35916e+01      -5.99758e+00       1.10215e-04       6.68420e+01
 18.900      2.11422e+02       1.30478e+01      -5.92831e+00       1.08375e-04       6.57599e+01
 19.000      2.11534e+02       1.25185e+01      -5.86642e+00       1.06560e-04       6.46926e+01
 19.100      2.11648e+02       1.20040e+01      -5.81155e+00       1.04770e-04       6.36402e+01
 19.200      2.11764e+02       1.15047e+01      -5.76334e+00       1.03005e-04       6.26029e+01
 19.300      2.11882e+02       1.10209e+01      -5.72145e+00       1.01268e-04       6.15811e+01
 19.400      2.12003e+02       1.05528e+01      -5.68550e+00       9.95564e-05       6.05749e+01
 19.500      2.12125e+02       1.01008e+01      -5.65516e+00       9.78722e-05       5.95843e+01
 19.600      2.12248e+02       9.66514e+00      -5.63006e+00       9.62154e-05       5.86097e+01
 19.700      2.12372e+02       9.24616e+00      -5.60985e+00       9.45863e-05       5.76511e+01
 19.800      2.12497e+02       8.84417e+00      -5.59417e+00       9.29851e-05       5.67086e+01
 19.900      2.12624e+02       8.45945e+00      -5.58267e+00       9.14120e-05       5.57823e+01
 20.000      2.12750e+02       8.09231e+00      -5.57499e+00       8.98672e-05       5.48723e+01
 20.100      2.12877e+02       7.74306e+00      -5.57078e+00       8.83508e-05       5.39786e+01
 20.200      2.13004e+02       7.41199e+00      -5.56969e+00       8.68629e-05       5.31012e+01
 20.300      2.13131e+02       7.09943e+00      -5.57135e+00       8.54035e-05       5.22402e+01
