# Data Source: NASA MERRA (version 2)
# Model Calculated 2019-07-19 00:13:41
# Model Time = 2011-09-18 18:00:00
# Location = [  39.1026,  -84.5123 ]
# Fields = [ Z(km), T(K), U(m/s), V(m/s), R(g/cm3), P(mbar) ]
# Ground Height = 0.165
  0.000      2.93370e+02      -1.26180e+00      -6.13317e-01       1.21574e-03       1.02362e+03
  0.100      2.92629e+02      -1.47591e+00      -1.29069e-01       1.20467e-03       1.01174e+03
  0.200      2.91842e+02      -1.75518e+00       2.62718e-01       1.19393e-03       1.00002e+03
  0.300      2.91055e+02      -2.03458e+00       6.54329e-01       1.18330e-03       9.88439e+02
  0.400      2.90313e+02      -2.24906e+00       1.13805e+00       1.17255e-03       9.76972e+02
  0.500      2.89657e+02      -2.33849e+00       1.77979e+00       1.16153e-03       9.65603e+02
  0.600      2.89076e+02      -2.27620e+00       2.46665e+00       1.15029e-03       9.54336e+02
  0.700      2.88538e+02      -2.05458e+00       3.02045e+00       1.13897e-03       9.43180e+02
  0.800      2.88015e+02      -1.74002e+00       3.39026e+00       1.12767e-03       9.32137e+02
  0.900      2.87486e+02      -1.45224e+00       3.62010e+00       1.11649e-03       9.21201e+02
  1.000      2.86945e+02      -1.21902e+00       3.75462e+00       1.10545e-03       9.10370e+02
  1.100      2.86416e+02      -9.29292e-01       3.83608e+00       1.09444e-03       8.99645e+02
  1.200      2.85918e+02      -4.92158e-01       3.89942e+00       1.08341e-03       8.89029e+02
  1.300      2.85450e+02       6.92390e-02       3.95385e+00       1.07236e-03       8.78521e+02
  1.400      2.85000e+02       7.05962e-01       4.00274e+00       1.06134e-03       8.68122e+02
  1.500      2.84562e+02       1.36907e+00       4.04944e+00       1.05037e-03       8.57832e+02
  1.600      2.84125e+02       2.00974e+00       4.09732e+00       1.03950e-03       8.47651e+02
  1.700      2.83684e+02       2.59502e+00       4.14710e+00       1.02875e-03       8.37578e+02
  1.800      2.83241e+02       3.12440e+00       4.19414e+00       1.01809e-03       8.27611e+02
  1.900      2.82798e+02       3.60134e+00       4.23316e+00       1.00754e-03       8.17749e+02
  2.000      2.82357e+02       4.02929e+00       4.25886e+00       9.97067e-04       8.07988e+02
  2.100      2.81921e+02       4.41171e+00       4.26597e+00       9.86671e-04       7.98329e+02
  2.200      2.81490e+02       4.75182e+00       4.25148e+00       9.76348e-04       7.88768e+02
  2.300      2.81062e+02       5.05235e+00       4.21786e+00       9.66104e-04       7.79305e+02
  2.400      2.80635e+02       5.31594e+00       4.16837e+00       9.55947e-04       7.69941e+02
  2.500      2.80206e+02       5.54525e+00       4.10631e+00       9.45887e-04       7.60674e+02
  2.600      2.79774e+02       5.74291e+00       4.03493e+00       9.35930e-04       7.51506e+02
  2.700      2.79335e+02       5.91160e+00       3.95650e+00       9.26086e-04       7.42435e+02
  2.800      2.78887e+02       6.05430e+00       3.86657e+00       9.16360e-04       7.33460e+02
  2.900      2.78427e+02       6.17406e+00       3.75797e+00       9.06759e-04       7.24579e+02
  3.000      2.77954e+02       6.27396e+00       3.62351e+00       8.97288e-04       7.15791e+02
  3.100      2.77463e+02       6.35707e+00       3.45602e+00       8.87952e-04       7.07094e+02
  3.200      2.76954e+02       6.42645e+00       3.24834e+00       8.78757e-04       6.98486e+02
  3.300      2.76424e+02       6.48604e+00       3.00043e+00       8.69702e-04       6.89967e+02
  3.400      2.75878e+02       6.54175e+00       2.72919e+00       8.60774e-04       6.81535e+02
  3.500      2.75320e+02       6.59983e+00       2.45401e+00       8.51956e-04       6.73188e+02
  3.600      2.74754e+02       6.66649e+00       2.19428e+00       8.43233e-04       6.64927e+02
  3.700      2.74185e+02       6.74797e+00       1.96938e+00       8.34592e-04       6.56748e+02
  3.800      2.73616e+02       6.85049e+00       1.79867e+00       8.26017e-04       6.48653e+02
  3.900      2.73052e+02       6.97764e+00       1.69261e+00       8.17497e-04       6.40639e+02
  4.000      2.72496e+02       7.12656e+00       1.63994e+00       8.09024e-04       6.32707e+02
  4.100      2.71950e+02       7.29344e+00       1.62609e+00       8.00589e-04       6.24857e+02
  4.200      2.71418e+02       7.47445e+00       1.63652e+00       7.92186e-04       6.17088e+02
  4.300      2.70901e+02       7.66578e+00       1.65669e+00       7.83808e-04       6.09401e+02
  4.400      2.70405e+02       7.86361e+00       1.67203e+00       7.75447e-04       6.01794e+02
  4.500      2.69929e+02       8.06410e+00       1.66969e+00       7.67100e-04       5.94269e+02
  4.600      2.69469e+02       8.26315e+00       1.65089e+00       7.58782e-04       5.86824e+02
  4.700      2.69018e+02       8.45660e+00       1.62386e+00       7.50515e-04       5.79459e+02
  4.800      2.68567e+02       8.64023e+00       1.59688e+00       7.42323e-04       5.72173e+02
  4.900      2.68107e+02       8.80986e+00       1.57823e+00       7.34228e-04       5.64965e+02
  5.000      2.67631e+02       8.96130e+00       1.57619e+00       7.26251e-04       5.57834e+02
  5.100      2.67130e+02       9.09035e+00       1.59903e+00       7.18411e-04       5.50780e+02
  5.200      2.66598e+02       9.19418e+00       1.65273e+00       7.10725e-04       5.43801e+02
  5.300      2.66036e+02       9.27756e+00       1.73040e+00       7.03185e-04       5.36897e+02
  5.400      2.65449e+02       9.34791e+00       1.82064e+00       6.95774e-04       5.30067e+02
  5.500      2.64842e+02       9.41266e+00       1.91208e+00       6.88479e-04       5.23309e+02
  5.600      2.64219e+02       9.47922e+00       1.99331e+00       6.81284e-04       5.16624e+02
  5.700      2.63586e+02       9.55501e+00       2.05296e+00       6.74176e-04       5.10009e+02
  5.800      2.62948e+02       9.64745e+00       2.07964e+00       6.67141e-04       5.03465e+02
  5.900      2.62309e+02       9.76377e+00       2.06226e+00       6.60165e-04       4.96990e+02
  6.000      2.61671e+02       9.90578e+00       1.99784e+00       6.53243e-04       4.90582e+02
  6.100      2.61036e+02       1.00694e+01       1.89226e+00       6.46369e-04       4.84242e+02
  6.200      2.60403e+02       1.02501e+01       1.75185e+00       6.39544e-04       4.77967e+02
  6.300      2.59772e+02       1.04437e+01       1.58293e+00       6.32765e-04       4.71756e+02
  6.400      2.59145e+02       1.06456e+01       1.39183e+00       6.26030e-04       4.65608e+02
  6.500      2.58522e+02       1.08516e+01       1.18488e+00       6.19338e-04       4.59522e+02
  6.600      2.57902e+02       1.10571e+01       9.68395e-01       6.12686e-04       4.53497e+02
  6.700      2.57286e+02       1.12578e+01       7.48677e-01       6.06074e-04       4.47532e+02
  6.800      2.56673e+02       1.14512e+01       5.30635e-01       5.99505e-04       4.41627e+02
  6.900      2.56061e+02       1.16369e+01       3.17468e-01       5.92988e-04       4.35784e+02
  7.000      2.55447e+02       1.18146e+01       1.12266e-01       5.86533e-04       4.30007e+02
  7.100      2.54828e+02       1.19840e+01      -8.18821e-02       5.80148e-04       4.24296e+02
  7.200      2.54202e+02       1.21450e+01      -2.61885e-01       5.73843e-04       4.18654e+02
  7.300      2.53567e+02       1.22972e+01      -4.24654e-01       5.67626e-04       4.13082e+02
  7.400      2.52919e+02       1.24405e+01      -5.67097e-01       5.61504e-04       4.07583e+02
  7.500      2.52256e+02       1.25745e+01      -6.86126e-01       5.55486e-04       4.02159e+02
  7.600      2.51576e+02       1.26992e+01      -7.78913e-01       5.49578e-04       3.96809e+02
  7.700      2.50880e+02       1.28158e+01      -8.46608e-01       5.43772e-04       3.91529e+02
  7.800      2.50169e+02       1.29266e+01      -8.93433e-01       5.38047e-04       3.86310e+02
  7.900      2.49448e+02       1.30342e+01      -9.23690e-01       5.32384e-04       3.81142e+02
  8.000      2.48718e+02       1.31408e+01      -9.41682e-01       5.26765e-04       3.76017e+02
  8.100      2.47984e+02       1.32490e+01      -9.51713e-01       5.21173e-04       3.70926e+02
  8.200      2.47248e+02       1.33610e+01      -9.58084e-01       5.15589e-04       3.65862e+02
  8.300      2.46512e+02       1.34794e+01      -9.65098e-01       5.09997e-04       3.60818e+02
  8.400      2.45780e+02       1.36065e+01      -9.77057e-01       5.04382e-04       3.55785e+02
  8.500      2.45055e+02       1.37448e+01      -9.98265e-01       4.98728e-04       3.50759e+02
  8.600      2.44339e+02       1.38961e+01      -1.03245e+00       4.93027e-04       3.45736e+02
  8.700      2.43631e+02       1.40594e+01      -1.07969e+00       4.87305e-04       3.40734e+02
  8.800      2.42930e+02       1.42323e+01      -1.13866e+00       4.81602e-04       3.35778e+02
  8.900      2.42234e+02       1.44127e+01      -1.20802e+00       4.75955e-04       3.30890e+02
  9.000      2.41541e+02       1.45981e+01      -1.28643e+00       4.70400e-04       3.26092e+02
  9.100      2.40849e+02       1.47863e+01      -1.37254e+00       4.64971e-04       3.21405e+02
  9.200      2.40156e+02       1.49750e+01      -1.46502e+00       4.59701e-04       3.16847e+02
  9.300      2.39460e+02       1.51620e+01      -1.56254e+00       4.54620e-04       3.12438e+02
  9.400      2.38761e+02       1.53448e+01      -1.66374e+00       4.49759e-04       3.08194e+02
  9.500      2.38055e+02       1.55213e+01      -1.76730e+00       4.45146e-04       3.04131e+02
  9.600      2.37341e+02       1.56891e+01      -1.87188e+00       4.40808e-04       3.00264e+02
  9.700      2.36617e+02       1.58463e+01      -1.97600e+00       4.36766e-04       2.96603e+02
  9.800      2.35884e+02       1.59931e+01      -2.07763e+00       4.32995e-04       2.93132e+02
  9.900      2.35143e+02       1.61299e+01      -2.17452e+00       4.29465e-04       2.89829e+02
 10.000      2.34393e+02       1.62575e+01      -2.26444e+00       4.26144e-04       2.86671e+02
 10.100      2.33637e+02       1.63765e+01      -2.34515e+00       4.23001e-04       2.83638e+02
 10.200      2.32875e+02       1.64876e+01      -2.41440e+00       4.20007e-04       2.80712e+02
 10.300      2.32107e+02       1.65914e+01      -2.46997e+00       4.17133e-04       2.77873e+02
 10.400      2.31335e+02       1.66885e+01      -2.50962e+00       4.14353e-04       2.75102e+02
 10.500      2.30559e+02       1.67796e+01      -2.53110e+00       4.11639e-04       2.72383e+02
 10.600      2.29780e+02       1.68654e+01      -2.53219e+00       4.08965e-04       2.69699e+02
 10.700      2.28999e+02       1.69464e+01      -2.51064e+00       4.06305e-04       2.67034e+02
 10.800      2.28216e+02       1.70234e+01      -2.46422e+00       4.03635e-04       2.64373e+02
 10.900      2.27433e+02       1.70970e+01      -2.39068e+00       4.00930e-04       2.61700e+02
 11.000      2.26650e+02       1.71677e+01      -2.28780e+00       3.98167e-04       2.59001e+02
 11.100      2.25867e+02       1.72364e+01      -2.15333e+00       3.95322e-04       2.56263e+02
 11.200      2.25087e+02       1.73035e+01      -1.98504e+00       3.92375e-04       2.53474e+02
 11.300      2.24309e+02       1.73698e+01      -1.78068e+00       3.89302e-04       2.50620e+02
 11.400      2.23534e+02       1.74360e+01      -1.53865e+00       3.86086e-04       2.47691e+02
 11.500      2.22765e+02       1.75036e+01      -1.26218e+00       3.82719e-04       2.44686e+02
 11.600      2.22004e+02       1.75744e+01      -9.56736e-01       3.79200e-04       2.41608e+02
 11.700      2.21253e+02       1.76501e+01      -6.27817e-01       3.75529e-04       2.38460e+02
 11.800      2.20515e+02       1.77327e+01      -2.80908e-01       3.71706e-04       2.35244e+02
 11.900      2.19792e+02       1.78239e+01       7.84936e-02       3.67730e-04       2.31965e+02
 12.000      2.19086e+02       1.79255e+01       4.44904e-01       3.63602e-04       2.28625e+02
 12.100      2.18401e+02       1.80394e+01       8.12829e-01       3.59322e-04       2.25227e+02
 12.200      2.17738e+02       1.81673e+01       1.17677e+00       3.54892e-04       2.21775e+02
 12.300      2.17101e+02       1.83112e+01       1.53125e+00       3.50313e-04       2.18272e+02
 12.400      2.16490e+02       1.84728e+01       1.87077e+00       3.45587e-04       2.14723e+02
 12.500      2.15910e+02       1.86539e+01       2.18984e+00       3.40716e-04       2.11129e+02
 12.600      2.15362e+02       1.88563e+01       2.48297e+00       3.35704e-04       2.07495e+02
 12.700      2.14849e+02       1.90819e+01       2.74467e+00       3.30553e-04       2.03824e+02
 12.800      2.14373e+02       1.93325e+01       2.96945e+00       3.25267e-04       2.00121e+02
 12.900      2.13936e+02       1.96085e+01       3.15310e+00       3.19854e-04       1.96389e+02
 13.000      2.13537e+02       1.99043e+01       3.29715e+00       3.14339e-04       1.92643e+02
 13.100      2.13173e+02       2.02128e+01       3.40468e+00       3.08753e-04       1.88897e+02
 13.200      2.12842e+02       2.05266e+01       3.47876e+00       3.03121e-04       1.85163e+02
 13.300      2.12542e+02       2.08386e+01       3.52248e+00       2.97470e-04       1.81456e+02
 13.400      2.12271e+02       2.11415e+01       3.53893e+00       2.91826e-04       1.77785e+02
 13.500      2.12025e+02       2.14281e+01       3.53119e+00       2.86210e-04       1.74162e+02
 13.600      2.11804e+02       2.16912e+01       3.50234e+00       2.80644e-04       1.70597e+02
 13.700      2.11605e+02       2.19236e+01       3.45546e+00       2.75148e-04       1.67099e+02
 13.800      2.11425e+02       2.21179e+01       3.39364e+00       2.69741e-04       1.63676e+02
 13.900      2.11262e+02       2.22670e+01       3.31997e+00       2.64439e-04       1.60336e+02
 14.000      2.11115e+02       2.23636e+01       3.23752e+00       2.59258e-04       1.57084e+02
 14.100      2.10980e+02       2.24006e+01       3.14937e+00       2.54213e-04       1.53929e+02
 14.200      2.10855e+02       2.23706e+01       3.05862e+00       2.49315e-04       1.50874e+02
 14.300      2.10739e+02       2.22672e+01       2.96818e+00       2.44576e-04       1.47925e+02
 14.400      2.10630e+02       2.20908e+01       2.87928e+00       2.39995e-04       1.45079e+02
 14.500      2.10529e+02       2.18459e+01       2.79221e+00       2.35561e-04       1.42330e+02
 14.600      2.10435e+02       2.15372e+01       2.70722e+00       2.31269e-04       1.39675e+02
 14.700      2.10349e+02       2.11690e+01       2.62457e+00       2.27110e-04       1.37107e+02
 14.800      2.10269e+02       2.07461e+01       2.54452e+00       2.23078e-04       1.34621e+02
 14.900      2.10198e+02       2.02730e+01       2.46732e+00       2.19164e-04       1.32215e+02
 15.000      2.10133e+02       1.97542e+01       2.39325e+00       2.15364e-04       1.29882e+02
 15.100      2.10075e+02       1.91943e+01       2.32256e+00       2.11671e-04       1.27620e+02
 15.200      2.10025e+02       1.85979e+01       2.25552e+00       2.08079e-04       1.25424e+02
 15.300      2.09982e+02       1.79695e+01       2.19237e+00       2.04583e-04       1.23291e+02
 15.400      2.09946e+02       1.73137e+01       2.13338e+00       2.01177e-04       1.21218e+02
 15.500      2.09917e+02       1.66351e+01       2.07881e+00       1.97856e-04       1.19201e+02
 15.600      2.09894e+02       1.59382e+01       2.02892e+00       1.94617e-04       1.17237e+02
 15.700      2.09879e+02       1.52276e+01       1.98397e+00       1.91453e-04       1.15323e+02
 15.800      2.09871e+02       1.45079e+01       1.94421e+00       1.88362e-04       1.13456e+02
 15.900      2.09869e+02       1.37835e+01       1.90992e+00       1.85338e-04       1.11634e+02
 16.000      2.09875e+02       1.30592e+01       1.88135e+00       1.82379e-04       1.09854e+02
 16.100      2.09887e+02       1.23394e+01       1.85876e+00       1.79480e-04       1.08114e+02
 16.200      2.09906e+02       1.16287e+01       1.84240e+00       1.76637e-04       1.06411e+02
 16.300      2.09931e+02       1.09316e+01       1.83255e+00       1.73848e-04       1.04744e+02
 16.400      2.09963e+02       1.02528e+01       1.82945e+00       1.71109e-04       1.03109e+02
 16.500      2.10002e+02       9.59682e+00       1.83337e+00       1.68418e-04       1.01506e+02
 16.600      2.10047e+02       8.96818e+00       1.84457e+00       1.65770e-04       9.99321e+01
 16.700      2.10099e+02       8.37044e+00       1.86317e+00       1.63165e-04       9.83857e+01
 16.800      2.10157e+02       7.80359e+00       1.88874e+00       1.60600e-04       9.68659e+01
 16.900      2.10221e+02       7.26680e+00       1.92077e+00       1.58074e-04       9.53717e+01
 17.000      2.10292e+02       6.75925e+00       1.95874e+00       1.55586e-04       9.39023e+01
 17.100      2.10369e+02       6.28014e+00       2.00213e+00       1.53135e-04       9.24569e+01
 17.200      2.10452e+02       5.82865e+00       2.05041e+00       1.50720e-04       9.10346e+01
 17.300      2.10541e+02       5.40398e+00       2.10306e+00       1.48340e-04       8.96349e+01
 17.400      2.10636e+02       5.00529e+00       2.15956e+00       1.45994e-04       8.82568e+01
 17.500      2.10737e+02       4.63178e+00       2.21939e+00       1.43680e-04       8.68997e+01
 17.600      2.10843e+02       4.28264e+00       2.28202e+00       1.41398e-04       8.55630e+01
 17.700      2.10955e+02       3.95705e+00       2.34694e+00       1.39148e-04       8.42459e+01
 17.800      2.11073e+02       3.65421e+00       2.41361e+00       1.36928e-04       8.29480e+01
 17.900      2.11196e+02       3.37329e+00       2.48152e+00       1.34737e-04       8.16684e+01
 18.000      2.11325e+02       3.11347e+00       2.55015e+00       1.32574e-04       8.04068e+01
 18.100      2.11459e+02       2.87396e+00       2.61897e+00       1.30440e-04       7.91625e+01
 18.200      2.11599e+02       2.65393e+00       2.68746e+00       1.28333e-04       7.79351e+01
 18.300      2.11743e+02       2.45257e+00       2.75510e+00       1.26252e-04       7.67240e+01
 18.400      2.11893e+02       2.26906e+00       2.82137e+00       1.24198e-04       7.55287e+01
 18.500      2.12048e+02       2.10260e+00       2.88574e+00       1.22168e-04       7.43488e+01
 18.600      2.12208e+02       1.95236e+00       2.94770e+00       1.20163e-04       7.31838e+01
 18.700      2.12372e+02       1.81754e+00       3.00671e+00       1.18183e-04       7.20333e+01
 18.800      2.12541e+02       1.69732e+00       3.06226e+00       1.16226e-04       7.08969e+01
 18.900      2.12716e+02       1.59089e+00       3.11383e+00       1.14291e-04       6.97742e+01
 19.000      2.12894e+02       1.49727e+00       3.16107e+00       1.12380e-04       6.86651e+01
 19.100      2.13077e+02       1.41514e+00       3.20401e+00       1.10493e-04       6.75699e+01
 19.200      2.13263e+02       1.34314e+00       3.24275e+00       1.08630e-04       6.64887e+01
 19.300      2.13451e+02       1.27990e+00       3.27738e+00       1.06793e-04       6.54220e+01
 19.400      2.13643e+02       1.22404e+00       3.30799e+00       1.04982e-04       6.43700e+01
 19.500      2.13836e+02       1.17421e+00       3.33466e+00       1.03197e-04       6.33328e+01
 19.600      2.14030e+02       1.12903e+00       3.35748e+00       1.01439e-04       6.23107e+01
 19.700      2.14225e+02       1.08713e+00       3.37656e+00       9.97097e-05       6.13040e+01
 19.800      2.14420e+02       1.04715e+00       3.39197e+00       9.80082e-05       6.03127e+01
 19.900      2.14614e+02       1.00772e+00       3.40381e+00       9.63352e-05       5.93370e+01
 20.000      2.14808e+02       9.67472e-01       3.41216e+00       9.46911e-05       5.83769e+01
 20.100      2.15000e+02       9.25036e-01       3.41712e+00       9.30763e-05       5.74327e+01
 20.200      2.15190e+02       8.79045e-01       3.41877e+00       9.14910e-05       5.65044e+01
