# Data Source: NASA MERRA (version 2)
# Model Time = 2011-04-01 18:00:00
# Location = [  39.1026,  -84.5123 ]
# Fields = [ Z(km), T(K), U(m/s), V(m/s), R(g/cm3), P(mbar) ]
# Ground Height = 0.165
  0.000      2.83541e+02       7.70057e+00      -5.80739e-01       1.23568e-03       1.00555e+03
  0.100      2.83000e+02       7.47638e+00      -6.09045e-01       1.22322e-03       9.93517e+02
  0.200      2.82387e+02       7.41714e+00      -6.19157e-01       1.21120e-03       9.81618e+02
  0.300      2.81573e+02       7.81616e+00      -5.78758e-01       1.20011e-03       9.69828e+02
  0.400      2.80566e+02       8.59396e+00      -4.97625e-01       1.18990e-03       9.58136e+02
  0.500      2.79532e+02       9.23827e+00      -4.34431e-01       1.17985e-03       9.46542e+02
  0.600      2.78567e+02       9.48488e+00      -4.21174e-01       1.16956e-03       9.35047e+02
  0.700      2.77636e+02       9.53320e+00      -4.39780e-01       1.15918e-03       9.23653e+02
  0.800      2.76700e+02       9.56786e+00      -4.70178e-01       1.14889e-03       9.12363e+02
  0.900      2.75747e+02       9.60525e+00      -5.00367e-01       1.13872e-03       9.01174e+02
  1.000      2.74773e+02       9.63441e+00      -5.21584e-01       1.12869e-03       8.90084e+02
  1.100      2.73785e+02       9.65576e+00      -5.35120e-01       1.11878e-03       8.79092e+02
  1.200      2.72792e+02       9.67358e+00      -5.45703e-01       1.10893e-03       8.68198e+02
  1.300      2.71806e+02       9.69218e+00      -5.58064e-01       1.09911e-03       8.57400e+02
  1.400      2.70835e+02       9.71585e+00      -5.76950e-01       1.08928e-03       8.46697e+02
  1.500      2.69887e+02       9.75034e+00      -6.08230e-01       1.07942e-03       8.36089e+02
  1.600      2.68958e+02       9.80370e+00      -6.59624e-01       1.06953e-03       8.25578e+02
  1.700      2.68046e+02       9.88421e+00      -7.39028e-01       1.05963e-03       8.15163e+02
  1.800      2.67148e+02       1.00002e+01      -8.54335e-01       1.04973e-03       8.04845e+02
  1.900      2.66262e+02       1.01594e+01      -1.01275e+00       1.03985e-03       7.94626e+02
  2.000      2.65394e+02       1.03612e+01      -1.20746e+00       1.02997e-03       7.84506e+02
  2.100      2.64557e+02       1.05967e+01      -1.41860e+00       1.02003e-03       7.74484e+02
  2.200      2.63764e+02       1.08570e+01      -1.62580e+00       1.00998e-03       7.64559e+02
  2.300      2.63028e+02       1.11328e+01      -1.80868e+00       9.99792e-04       7.54733e+02
  2.400      2.62363e+02       1.14153e+01      -1.94771e+00       9.89405e-04       7.45005e+02
  2.500      2.61770e+02       1.16967e+01      -2.04131e+00       9.78832e-04       7.35376e+02
  2.600      2.61236e+02       1.19711e+01      -2.10512e+00       9.68126e-04       7.25849e+02
  2.700      2.60750e+02       1.22324e+01      -2.15553e+00       9.57339e-04       7.16426e+02
  2.800      2.60300e+02       1.24743e+01      -2.20889e+00       9.46524e-04       7.07110e+02
  2.900      2.59874e+02       1.26911e+01      -2.28150e+00       9.35731e-04       6.97903e+02
  3.000      2.59459e+02       1.28824e+01      -2.37895e+00       9.25009e-04       6.88805e+02
  3.100      2.59040e+02       1.30605e+01      -2.48474e+00       9.14408e-04       6.79812e+02
  3.200      2.58603e+02       1.32391e+01      -2.57967e+00       9.03979e-04       6.70923e+02
  3.300      2.58131e+02       1.34317e+01      -2.64451e+00       8.93766e-04       6.62134e+02
  3.400      2.57610e+02       1.36520e+01      -2.66007e+00       8.83816e-04       6.53441e+02
  3.500      2.57026e+02       1.39127e+01      -2.60872e+00       8.74168e-04       6.44842e+02
  3.600      2.56380e+02       1.42133e+01      -2.49643e+00       8.64808e-04       6.36335e+02
  3.700      2.55688e+02       1.45427e+01      -2.34726e+00       8.55678e-04       6.27918e+02
  3.800      2.54965e+02       1.48897e+01      -2.18577e+00       8.46725e-04       6.19591e+02
  3.900      2.54226e+02       1.52432e+01      -2.03648e+00       8.37894e-04       6.11351e+02
  4.000      2.53485e+02       1.55920e+01      -1.92394e+00       8.29135e-04       6.03198e+02
  4.100      2.52758e+02       1.59250e+01      -1.87161e+00       8.20399e-04       5.95130e+02
  4.200      2.52047e+02       1.62349e+01      -1.88704e+00       8.11676e-04       5.87147e+02
  4.300      2.51348e+02       1.65169e+01      -1.96572e+00       8.02984e-04       5.79249e+02
  4.400      2.50656e+02       1.67663e+01      -2.10282e+00       7.94340e-04       5.71434e+02
  4.500      2.49965e+02       1.69783e+01      -2.29353e+00       7.85759e-04       5.63703e+02
  4.600      2.49270e+02       1.71484e+01      -2.53303e+00       7.77260e-04       5.56056e+02
  4.700      2.48566e+02       1.72718e+01      -2.81649e+00       7.68857e-04       5.48491e+02
  4.800      2.47850e+02       1.73497e+01      -3.13820e+00       7.60560e-04       5.41009e+02
  4.900      2.47122e+02       1.73962e+01      -3.49051e+00       7.52366e-04       5.33609e+02
  5.000      2.46383e+02       1.74273e+01      -3.86547e+00       7.44271e-04       5.26289e+02
  5.100      2.45634e+02       1.74587e+01      -4.25516e+00       7.36271e-04       5.19049e+02
  5.200      2.44876e+02       1.75063e+01      -4.65163e+00       7.28363e-04       5.11888e+02
  5.300      2.44109e+02       1.75862e+01      -5.04697e+00       7.20541e-04       5.04805e+02
  5.400      2.43334e+02       1.77138e+01      -5.43319e+00       7.12804e-04       4.97800e+02
  5.500      2.42553e+02       1.78913e+01      -5.80002e+00       7.05145e-04       4.90871e+02
  5.600      2.41767e+02       1.80988e+01      -6.13341e+00       6.97559e-04       4.84016e+02
  5.700      2.40977e+02       1.83141e+01      -6.41896e+00       6.90040e-04       4.77234e+02
  5.800      2.40184e+02       1.85153e+01      -6.64228e+00       6.82583e-04       4.70523e+02
  5.900      2.39390e+02       1.86802e+01      -6.78898e+00       6.75182e-04       4.63883e+02
  6.000      2.38595e+02       1.87869e+01      -6.84465e+00       6.67832e-04       4.57310e+02
  6.100      2.37802e+02       1.88133e+01      -6.79491e+00       6.60527e-04       4.50805e+02
  6.200      2.37012e+02       1.87427e+01      -6.63063e+00       6.53264e-04       4.44366e+02
  6.300      2.36225e+02       1.85897e+01      -6.37336e+00       6.46044e-04       4.37996e+02
  6.400      2.35443e+02       1.83803e+01      -6.05577e+00       6.38869e-04       4.31696e+02
  6.500      2.34665e+02       1.81404e+01      -5.71052e+00       6.31742e-04       4.25471e+02
  6.600      2.33894e+02       1.78959e+01      -5.37028e+00       6.24667e-04       4.19323e+02
  6.700      2.33129e+02       1.76728e+01      -5.06773e+00       6.17645e-04       4.13254e+02
  6.800      2.32372e+02       1.74969e+01      -4.83553e+00       6.10678e-04       4.07266e+02
  6.900      2.31624e+02       1.73943e+01      -4.70636e+00       6.03770e-04       4.01362e+02
  7.000      2.30885e+02       1.73881e+01      -4.70870e+00       5.96919e-04       3.95542e+02
  7.100      2.30162e+02       1.74790e+01      -4.83670e+00       5.90102e-04       3.89801e+02
  7.200      2.29461e+02       1.76566e+01      -5.06760e+00       5.83288e-04       3.84127e+02
  7.300      2.28791e+02       1.79103e+01      -5.37856e+00       5.76446e-04       3.78512e+02
  7.400      2.28158e+02       1.82297e+01      -5.74672e+00       5.69545e-04       3.72946e+02
  7.500      2.27571e+02       1.86043e+01      -6.14923e+00       5.62557e-04       3.67422e+02
  7.600      2.27036e+02       1.90237e+01      -6.56323e+00       5.55457e-04       3.61932e+02
  7.700      2.26561e+02       1.94773e+01      -6.96587e+00       5.48217e-04       3.56468e+02
  7.800      2.26154e+02       1.99546e+01      -7.33430e+00       5.40816e-04       3.51023e+02
  7.900      2.25820e+02       2.04457e+01      -7.64825e+00       5.33238e-04       3.45594e+02
  8.000      2.25558e+02       2.09444e+01      -7.90590e+00       5.25530e-04       3.40202e+02
  8.100      2.25359e+02       2.14457e+01      -8.11343e+00       5.17760e-04       3.34877e+02
  8.200      2.25217e+02       2.19452e+01      -8.27706e+00       5.09991e-04       3.29645e+02
  8.300      2.25126e+02       2.24380e+01      -8.40300e+00       5.02285e-04       3.24532e+02
  8.400      2.25078e+02       2.29195e+01      -8.49744e+00       4.94700e-04       3.19564e+02
  8.500      2.25067e+02       2.33850e+01      -8.56662e+00       4.87291e-04       3.14761e+02
  8.600      2.25085e+02       2.38297e+01      -8.61673e+00       4.80107e-04       3.10146e+02
  8.700      2.25126e+02       2.42490e+01      -8.65398e+00       4.73198e-04       3.05738e+02
  8.800      2.25182e+02       2.46381e+01      -8.68459e+00       4.66608e-04       3.01556e+02
  8.900      2.25249e+02       2.49926e+01      -8.71450e+00       4.60376e-04       2.97616e+02
  9.000      2.25321e+02       2.53113e+01      -8.74572e+00       4.54497e-04       2.93910e+02
  9.100      2.25398e+02       2.55951e+01      -8.77736e+00       4.48932e-04       2.90410e+02
  9.200      2.25480e+02       2.58454e+01      -8.80847e+00       4.43644e-04       2.87094e+02
  9.300      2.25565e+02       2.60632e+01      -8.83808e+00       4.38599e-04       2.83937e+02
  9.400      2.25654e+02       2.62499e+01      -8.86522e+00       4.33763e-04       2.80916e+02
  9.500      2.25745e+02       2.64064e+01      -8.88895e+00       4.29104e-04       2.78011e+02
  9.600      2.25837e+02       2.65341e+01      -8.90829e+00       4.24592e-04       2.75200e+02
  9.700      2.25930e+02       2.66341e+01      -8.92228e+00       4.20198e-04       2.72465e+02
  9.800      2.26024e+02       2.67075e+01      -8.92997e+00       4.15893e-04       2.69784e+02
  9.900      2.26116e+02       2.67556e+01      -8.93039e+00       4.11650e-04       2.67142e+02
 10.000      2.26208e+02       2.67796e+01      -8.92258e+00       4.07444e-04       2.64519e+02
 10.100      2.26297e+02       2.67805e+01      -8.90558e+00       4.03249e-04       2.61899e+02
 10.200      2.26384e+02       2.67596e+01      -8.87843e+00       3.99042e-04       2.59266e+02
 10.300      2.26467e+02       2.67181e+01      -8.84016e+00       3.94800e-04       2.56604e+02
 10.400      2.26546e+02       2.66571e+01      -8.78982e+00       3.90502e-04       2.53899e+02
 10.500      2.26620e+02       2.65779e+01      -8.72644e+00       3.86125e-04       2.51135e+02
 10.600      2.26688e+02       2.64816e+01      -8.64917e+00       3.81653e-04       2.48301e+02
 10.700      2.26750e+02       2.63703e+01      -8.55874e+00       3.77080e-04       2.45393e+02
 10.800      2.26804e+02       2.62468e+01      -8.45711e+00       3.72413e-04       2.42414e+02
 10.900      2.26851e+02       2.61139e+01      -8.34630e+00       3.67659e-04       2.39369e+02
 11.000      2.26890e+02       2.59743e+01      -8.22830e+00       3.62824e-04       2.36262e+02
 11.100      2.26920e+02       2.58308e+01      -8.10512e+00       3.57917e-04       2.33096e+02
 11.200      2.26939e+02       2.56861e+01      -7.97876e+00       3.52942e-04       2.29877e+02
 11.300      2.26949e+02       2.55431e+01      -7.85122e+00       3.47907e-04       2.26607e+02
 11.400      2.26947e+02       2.54045e+01      -7.72451e+00       3.42819e-04       2.23291e+02
 11.500      2.26933e+02       2.52730e+01      -7.60062e+00       3.37683e-04       2.19932e+02
 11.600      2.26907e+02       2.51514e+01      -7.48156e+00       3.32506e-04       2.16535e+02
 11.700      2.26868e+02       2.50425e+01      -7.36934e+00       3.27293e-04       2.13104e+02
 11.800      2.26815e+02       2.49491e+01      -7.26594e+00       3.22051e-04       2.09642e+02
 11.900      2.26747e+02       2.48739e+01      -7.17339e+00       3.16786e-04       2.06153e+02
 12.000      2.26664e+02       2.48197e+01      -7.09367e+00       3.11504e-04       2.02641e+02
 12.100      2.26566e+02       2.47893e+01      -7.02878e+00       3.06209e-04       1.99110e+02
 12.200      2.26451e+02       2.47832e+01      -6.97943e+00       3.00910e-04       1.95566e+02
 12.300      2.26322e+02       2.47982e+01      -6.94380e+00       2.95621e-04       1.92019e+02
 12.400      2.26180e+02       2.48302e+01      -6.91983e+00       2.90356e-04       1.88480e+02
 12.500      2.26025e+02       2.48754e+01      -6.90543e+00       2.85128e-04       1.84960e+02
 12.600      2.25861e+02       2.49300e+01      -6.89852e+00       2.79948e-04       1.81468e+02
 12.700      2.25687e+02       2.49901e+01      -6.89701e+00       2.74828e-04       1.78012e+02
 12.800      2.25506e+02       2.50517e+01      -6.89883e+00       2.69779e-04       1.74601e+02
 12.900      2.25318e+02       2.51111e+01      -6.90188e+00       2.64810e-04       1.71243e+02
 13.000      2.25125e+02       2.51643e+01      -6.90410e+00       2.59929e-04       1.67943e+02
 13.100      2.24930e+02       2.52075e+01      -6.90339e+00       2.55146e-04       1.64709e+02
 13.200      2.24731e+02       2.52367e+01      -6.89767e+00       2.50466e-04       1.61546e+02
 13.300      2.24533e+02       2.52481e+01      -6.88487e+00       2.45898e-04       1.58459e+02
 13.400      2.24335e+02       2.52379e+01      -6.86290e+00       2.41448e-04       1.55454e+02
 13.500      2.24139e+02       2.52021e+01      -6.82968e+00       2.37120e-04       1.52534e+02
 13.600      2.23947e+02       2.51369e+01      -6.78312e+00       2.32920e-04       1.49704e+02
 13.700      2.23759e+02       2.50396e+01      -6.72183e+00       2.28850e-04       1.46965e+02
 13.800      2.23576e+02       2.49114e+01      -6.64641e+00       2.24905e-04       1.44313e+02
 13.900      2.23397e+02       2.47539e+01      -6.55783e+00       2.21079e-04       1.41745e+02
 14.000      2.23223e+02       2.45689e+01      -6.45705e+00       2.17367e-04       1.39256e+02
 14.100      2.23053e+02       2.43581e+01      -6.34503e+00       2.13761e-04       1.36842e+02
 14.200      2.22888e+02       2.41233e+01      -6.22274e+00       2.10258e-04       1.34500e+02
 14.300      2.22727e+02       2.38661e+01      -6.09113e+00       2.06852e-04       1.32225e+02
 14.400      2.22570e+02       2.35884e+01      -5.95119e+00       2.03538e-04       1.30016e+02
 14.500      2.22418e+02       2.32919e+01      -5.80386e+00       2.00313e-04       1.27867e+02
 14.600      2.22269e+02       2.29782e+01      -5.65012e+00       1.97170e-04       1.25777e+02
 14.700      2.22124e+02       2.26492e+01      -5.49092e+00       1.94107e-04       1.23742e+02
 14.800      2.21983e+02       2.23065e+01      -5.32724e+00       1.91119e-04       1.21760e+02
 14.900      2.21846e+02       2.19519e+01      -5.16003e+00       1.88202e-04       1.19828e+02
 15.000      2.21713e+02       2.15872e+01      -4.99026e+00       1.85354e-04       1.17943e+02
 15.100      2.21583e+02       2.12140e+01      -4.81889e+00       1.82569e-04       1.16104e+02
 15.200      2.21456e+02       2.08341e+01      -4.64690e+00       1.79846e-04       1.14306e+02
 15.300      2.21333e+02       2.04492e+01      -4.47523e+00       1.77181e-04       1.12550e+02
 15.400      2.21214e+02       2.00611e+01      -4.30486e+00       1.74570e-04       1.10832e+02
 15.500      2.21098e+02       1.96715e+01      -4.13675e+00       1.72011e-04       1.09150e+02
 15.600      2.20985e+02       1.92821e+01      -3.97186e+00       1.69502e-04       1.07503e+02
 15.700      2.20875e+02       1.88946e+01      -3.81116e+00       1.67039e-04       1.05888e+02
 15.800      2.20768e+02       1.85109e+01      -3.65562e+00       1.64620e-04       1.04304e+02
 15.900      2.20664e+02       1.81326e+01      -3.50619e+00       1.62243e-04       1.02749e+02
 16.000      2.20563e+02       1.77615e+01      -3.36384e+00       1.59905e-04       1.01222e+02
 16.100      2.20464e+02       1.73992e+01      -3.22953e+00       1.57604e-04       9.97214e+01
 16.200      2.20369e+02       1.70470e+01      -3.10387e+00       1.55339e-04       9.82453e+01
 16.300      2.20276e+02       1.67043e+01      -2.98664e+00       1.53107e-04       9.67930e+01
 16.400      2.20185e+02       1.63706e+01      -2.87751e+00       1.50908e-04       9.53638e+01
 16.500      2.20098e+02       1.60454e+01      -2.77614e+00       1.48741e-04       9.39568e+01
 16.600      2.20012e+02       1.57279e+01      -2.68221e+00       1.46604e-04       9.25713e+01
 16.700      2.19930e+02       1.54176e+01      -2.59536e+00       1.44497e-04       9.12066e+01
 16.800      2.19850e+02       1.51139e+01      -2.51528e+00       1.42419e-04       8.98618e+01
 16.900      2.19772e+02       1.48161e+01      -2.44163e+00       1.40368e-04       8.85364e+01
 17.000      2.19697e+02       1.45238e+01      -2.37407e+00       1.38343e-04       8.72297e+01
 17.100      2.19624e+02       1.42362e+01      -2.31227e+00       1.36345e-04       8.59410e+01
 17.200      2.19554e+02       1.39528e+01      -2.25589e+00       1.34371e-04       8.46698e+01
 17.300      2.19486e+02       1.36730e+01      -2.20461e+00       1.32422e-04       8.34155e+01
 17.400      2.19420e+02       1.33961e+01      -2.15808e+00       1.30495e-04       8.21775e+01
 17.500      2.19356e+02       1.31216e+01      -2.11597e+00       1.28592e-04       8.09553e+01
 17.600      2.19295e+02       1.28489e+01      -2.07795e+00       1.26710e-04       7.97483e+01
 17.700      2.19235e+02       1.25774e+01      -2.04369e+00       1.24850e-04       7.85562e+01
 17.800      2.19178e+02       1.23064e+01      -2.01285e+00       1.23010e-04       7.73784e+01
 17.900      2.19123e+02       1.20354e+01      -1.98510e+00       1.21190e-04       7.62145e+01
 18.000      2.19070e+02       1.17637e+01      -1.96009e+00       1.19390e-04       7.50640e+01
 18.100      2.19020e+02       1.14908e+01      -1.93751e+00       1.17608e-04       7.39266e+01
 18.200      2.18971e+02       1.12161e+01      -1.91701e+00       1.15844e-04       7.28019e+01
 18.300      2.18924e+02       1.09389e+01      -1.89826e+00       1.14099e-04       7.16895e+01
 18.400      2.18879e+02       1.06587e+01      -1.88093e+00       1.12370e-04       7.05890e+01
 18.500      2.18836e+02       1.03749e+01      -1.86469e+00       1.10659e-04       6.95001e+01
 18.600      2.18795e+02       1.00872e+01      -1.84946e+00       1.08964e-04       6.84229e+01
 18.700      2.18755e+02       9.79612e+00      -1.83542e+00       1.07287e-04       6.73578e+01
 18.800      2.18717e+02       9.50187e+00      -1.82278e+00       1.05629e-04       6.63050e+01
 18.900      2.18681e+02       9.20481e+00      -1.81173e+00       1.03989e-04       6.52650e+01
 19.000      2.18646e+02       8.90529e+00      -1.80248e+00       1.02369e-04       6.42380e+01
 19.100      2.18613e+02       8.60365e+00      -1.79523e+00       1.00769e-04       6.32243e+01
 19.200      2.18581e+02       8.30023e+00      -1.79017e+00       9.91895e-05       6.22243e+01
 19.300      2.18550e+02       7.99536e+00      -1.78751e+00       9.76311e-05       6.12380e+01
 19.400      2.18521e+02       7.68938e+00      -1.78745e+00       9.60941e-05       6.02658e+01
 19.500      2.18492e+02       7.38262e+00      -1.79018e+00       9.45789e-05       5.93079e+01
 19.600      2.18465e+02       7.07544e+00      -1.79592e+00       9.30859e-05       5.83644e+01
 19.700      2.18439e+02       6.76817e+00      -1.80485e+00       9.16154e-05       5.74354e+01
 19.800      2.18413e+02       6.46114e+00      -1.81718e+00       9.01676e-05       5.65211e+01
 19.900      2.18388e+02       6.15470e+00      -1.83311e+00       8.87427e-05       5.56216e+01
 20.000      2.18364e+02       5.84917e+00      -1.85284e+00       8.73410e-05       5.47370e+01
 20.100      2.18341e+02       5.54491e+00      -1.87657e+00       8.59626e-05       5.38674e+01
 20.200      2.18318e+02       5.24225e+00      -1.90450e+00       8.46077e-05       5.30128e+01
 20.300      2.18295e+02       4.94152e+00      -1.93684e+00       8.32764e-05       5.21733e+01
