# Data Source: NASA GEOS5 Near-Real-Time
# Model Time = 2010-09-16 18:00:00
# Location = [  39.7393, -104.9900 ]
# Fields = [ Z(km), T(K), U(m/s), V(m/s), R(g/cm3), P(mbar) ]
# Ground Height = 1.589
  0.000      3.08355e+02       2.74785e+00       1.09106e+00       1.14635e-03       1.01449e+03
  0.100      3.07734e+02       2.72280e+00       1.08830e+00       1.13527e-03       1.00266e+03
  0.200      3.07119e+02       2.69765e+00       1.08783e+00       1.12428e-03       9.90975e+02
  0.300      3.06487e+02       2.67288e+00       1.07953e+00       1.11347e-03       9.79424e+02
  0.400      3.05819e+02       2.64869e+00       1.05404e+00       1.10290e-03       9.68015e+02
  0.500      3.05127e+02       2.62096e+00       1.01285e+00       1.09253e-03       9.56747e+02
  0.600      3.04446e+02       2.58258e+00       9.65607e-01       1.08224e-03       9.45615e+02
  0.700      3.03789e+02       2.53551e+00       9.27722e-01       1.07197e-03       9.34621e+02
  0.800      3.03141e+02       2.49366e+00       9.21851e-01       1.06178e-03       9.23765e+02
  0.900      3.02491e+02       2.46591e+00       9.54822e-01       1.05172e-03       9.13048e+02
  1.000      3.01833e+02       2.44445e+00       9.86939e-01       1.04179e-03       9.02467e+02
  1.100      3.01168e+02       2.41801e+00       9.76181e-01       1.03201e-03       8.92018e+02
  1.200      3.00504e+02       2.37137e+00       9.29431e-01       1.02232e-03       8.81701e+02
  1.300      2.99852e+02       2.28784e+00       8.77628e-01       1.01271e-03       8.71517e+02
  1.400      2.99206e+02       2.17952e+00       8.46145e-01       1.00319e-03       8.61464e+02
  1.500      2.98531e+02       2.10199e+00       8.51709e-01       9.93877e-04       8.51536e+02
  1.600      2.97794e+02       2.10531e+00       9.04519e-01       9.84859e-04       8.41727e+02
  1.700      2.97008e+02       2.18104e+00       9.77435e-01       9.76085e-04       8.32028e+02
  1.800      2.96205e+02       2.29766e+00       1.02866e+00       9.67440e-04       8.22429e+02
  1.900      2.95406e+02       2.42606e+00       1.02832e+00       9.58849e-04       8.12926e+02
  2.000      2.94613e+02       2.54178e+00       9.68531e-01       9.50304e-04       8.03519e+02
  2.100      2.93829e+02       2.62327e+00       8.45672e-01       9.41801e-04       7.94211e+02
  2.200      2.93055e+02       2.68247e+00       6.81591e-01       9.33335e-04       7.84999e+02
  2.300      2.92291e+02       2.75554e+00       5.16585e-01       9.24902e-04       7.75876e+02
  2.400      2.91535e+02       2.87544e+00       3.82190e-01       9.16499e-04       7.66839e+02
  2.500      2.90784e+02       3.05511e+00       2.60835e-01       9.08143e-04       7.57890e+02
  2.600      2.90032e+02       3.30080e+00       1.18604e-01       8.99856e-04       7.49033e+02
  2.700      2.89271e+02       3.61289e+00      -6.79883e-02       8.91666e-04       7.40269e+02
  2.800      2.88488e+02       3.97481e+00      -2.92260e-01       8.83606e-04       7.31591e+02
  2.900      2.87667e+02       4.36696e+00      -5.42134e-01       8.75711e-04       7.22992e+02
  3.000      2.86804e+02       4.77045e+00      -8.08187e-01       8.67991e-04       7.14466e+02
  3.100      2.85912e+02       5.16782e+00      -1.08638e+00       8.60398e-04       7.06015e+02
  3.200      2.85010e+02       5.54197e+00      -1.37329e+00       8.52881e-04       6.97638e+02
  3.300      2.84107e+02       5.89031e+00      -1.66160e+00       8.45412e-04       6.89337e+02
  3.400      2.83200e+02       6.23604e+00      -1.93710e+00       8.37996e-04       6.81110e+02
  3.500      2.82285e+02       6.60489e+00      -2.18493e+00       8.30647e-04       6.72954e+02
  3.600      2.81359e+02       7.01004e+00      -2.39532e+00       8.23369e-04       6.64870e+02
  3.700      2.80424e+02       7.44038e+00      -2.56845e+00       8.16158e-04       6.56857e+02
  3.800      2.79482e+02       7.88202e+00      -2.70559e+00       8.09009e-04       6.48917e+02
  3.900      2.78536e+02       8.32444e+00      -2.80814e+00       8.01913e-04       6.41048e+02
  4.000      2.77589e+02       8.76611e+00      -2.87782e+00       7.94859e-04       6.33249e+02
  4.100      2.76644e+02       9.20697e+00      -2.91638e+00       7.87834e-04       6.25516e+02
  4.200      2.75704e+02       9.64558e+00      -2.92683e+00       7.80830e-04       6.17848e+02
  4.300      2.74766e+02       1.00736e+01      -2.91822e+00       7.73858e-04       6.10247e+02
  4.400      2.73824e+02       1.04808e+01      -2.90148e+00       7.66933e-04       6.02712e+02
  4.500      2.72874e+02       1.08569e+01      -2.88717e+00       7.60069e-04       5.95247e+02
  4.600      2.71925e+02       1.11971e+01      -2.88132e+00       7.53244e-04       5.87851e+02
  4.700      2.70992e+02       1.14993e+01      -2.88677e+00       7.46416e-04       5.80523e+02
  4.800      2.70091e+02       1.17621e+01      -2.90632e+00       7.39540e-04       5.73263e+02
  4.900      2.69233e+02       1.19854e+01      -2.94126e+00       7.32590e-04       5.66071e+02
  5.000      2.68416e+02       1.21729e+01      -2.98991e+00       7.25572e-04       5.58947e+02
  5.100      2.67638e+02       1.23286e+01      -3.05027e+00       7.18494e-04       5.51891e+02
  5.200      2.66898e+02       1.24568e+01      -3.12068e+00       7.11366e-04       5.44904e+02
  5.300      2.66192e+02       1.25645e+01      -3.20312e+00       7.04197e-04       5.37986e+02
  5.400      2.65518e+02       1.26601e+01      -3.30148e+00       6.96997e-04       5.31137e+02
  5.500      2.64872e+02       1.27521e+01      -3.41972e+00       6.89778e-04       5.24358e+02
  5.600      2.64252e+02       1.28470e+01      -3.56039e+00       6.82552e-04       5.17649e+02
  5.700      2.63646e+02       1.29454e+01      -3.72199e+00       6.75348e-04       5.11011e+02
  5.800      2.63043e+02       1.30466e+01      -3.90224e+00       6.68194e-04       5.04442e+02
  5.900      2.62433e+02       1.31502e+01      -4.09881e+00       6.61118e-04       4.97944e+02
  6.000      2.61809e+02       1.32564e+01      -4.30677e+00       6.54138e-04       4.91514e+02
  6.100      2.61167e+02       1.33668e+01      -4.51695e+00       6.47258e-04       4.85152e+02
  6.200      2.60506e+02       1.34833e+01      -4.71980e+00       6.40479e-04       4.78856e+02
  6.300      2.59825e+02       1.36075e+01      -4.90593e+00       6.33803e-04       4.72625e+02
  6.400      2.59124e+02       1.37419e+01      -5.07347e+00       6.27227e-04       4.66459e+02
  6.500      2.58407e+02       1.38899e+01      -5.23072e+00       6.20738e-04       4.60357e+02
  6.600      2.57679e+02       1.40551e+01      -5.38675e+00       6.14326e-04       4.54319e+02
  6.700      2.56946e+02       1.42409e+01      -5.55054e+00       6.07979e-04       4.48345e+02
  6.800      2.56210e+02       1.44454e+01      -5.72668e+00       6.01688e-04       4.42434e+02
  6.900      2.55472e+02       1.46574e+01      -5.91180e+00       5.95450e-04       4.36586e+02
  7.000      2.54732e+02       1.48646e+01      -6.10169e+00       5.89262e-04       4.30798e+02
  7.100      2.53992e+02       1.50546e+01      -6.29215e+00       5.83120e-04       4.25070e+02
  7.200      2.53251e+02       1.52165e+01      -6.48105e+00       5.77024e-04       4.19399e+02
  7.300      2.52509e+02       1.53443e+01      -6.67493e+00       5.70975e-04       4.13787e+02
  7.400      2.51765e+02       1.54335e+01      -6.88257e+00       5.64977e-04       4.08232e+02
  7.500      2.51017e+02       1.54793e+01      -7.11271e+00       5.59032e-04       4.02737e+02
  7.600      2.50264e+02       1.54774e+01      -7.37394e+00       5.53144e-04       3.97300e+02
  7.700      2.49506e+02       1.54265e+01      -7.66985e+00       5.47313e-04       3.91921e+02
  7.800      2.48744e+02       1.53284e+01      -7.99907e+00       5.41535e-04       3.86600e+02
  7.900      2.47979e+02       1.51852e+01      -8.36004e+00       5.35808e-04       3.81335e+02
  8.000      2.47213e+02       1.49990e+01      -8.75116e+00       5.30128e-04       3.76127e+02
  8.100      2.46446e+02       1.47726e+01      -9.17011e+00       5.24494e-04       3.70974e+02
  8.200      2.45675e+02       1.45157e+01      -9.60885e+00       5.18908e-04       3.65876e+02
  8.300      2.44899e+02       1.42412e+01      -1.00566e+01       5.13376e-04       3.60831e+02
  8.400      2.44114e+02       1.39621e+01      -1.05027e+01       5.07904e-04       3.55841e+02
  8.500      2.43318e+02       1.36912e+01      -1.09362e+01       5.02497e-04       3.50904e+02
  8.600      2.42507e+02       1.34397e+01      -1.13477e+01       4.97158e-04       3.46020e+02
  8.700      2.41684e+02       1.32074e+01      -1.17356e+01       4.91884e-04       3.41187e+02
  8.800      2.40853e+02       1.29887e+01      -1.21021e+01       4.86666e-04       3.36406e+02
  8.900      2.40016e+02       1.27782e+01      -1.24493e+01       4.81496e-04       3.31676e+02
  9.000      2.39177e+02       1.25705e+01      -1.27793e+01       4.76367e-04       3.26997e+02
  9.100      2.38341e+02       1.23606e+01      -1.30943e+01       4.71271e-04       3.22367e+02
  9.200      2.37509e+02       1.21505e+01      -1.33978e+01       4.66201e-04       3.17786e+02
  9.300      2.36686e+02       1.19478e+01      -1.36940e+01       4.61152e-04       3.13255e+02
  9.400      2.35875e+02       1.17604e+01      -1.39877e+01       4.56118e-04       3.08774e+02
  9.500      2.35079e+02       1.15964e+01      -1.42831e+01       4.51093e-04       3.04342e+02
  9.600      2.34302e+02       1.14635e+01      -1.45848e+01       4.46073e-04       2.99960e+02
  9.700      2.33545e+02       1.13697e+01      -1.48933e+01       4.41055e-04       2.95628e+02
  9.800      2.32807e+02       1.13227e+01      -1.51926e+01       4.36044e-04       2.91345e+02
  9.900      2.32084e+02       1.13302e+01      -1.54633e+01       4.31046e-04       2.87111e+02
 10.000      2.31372e+02       1.13998e+01      -1.56858e+01       4.26068e-04       2.82926e+02
 10.100      2.30669e+02       1.15394e+01      -1.58404e+01       4.21118e-04       2.78788e+02
 10.200      2.29971e+02       1.17565e+01      -1.59075e+01       4.16201e-04       2.74699e+02
 10.300      2.29276e+02       1.20558e+01      -1.58744e+01       4.11320e-04       2.70657e+02
 10.400      2.28588e+02       1.24312e+01      -1.57500e+01       4.06468e-04       2.66663e+02
 10.500      2.27915e+02       1.28748e+01      -1.55476e+01       4.01635e-04       2.62716e+02
 10.600      2.27260e+02       1.33789e+01      -1.52805e+01       3.96813e-04       2.58816e+02
 10.700      2.26631e+02       1.39353e+01      -1.49622e+01       3.91993e-04       2.54964e+02
 10.800      2.26033e+02       1.45361e+01      -1.46060e+01       3.87166e-04       2.51160e+02
 10.900      2.25470e+02       1.51735e+01      -1.42243e+01       3.82327e-04       2.47403e+02
 11.000      2.24942e+02       1.58387e+01      -1.38208e+01       3.77478e-04       2.43693e+02
 11.100      2.24442e+02       1.65227e+01      -1.33936e+01       3.72632e-04       2.40031e+02
 11.200      2.23967e+02       1.72164e+01      -1.29411e+01       3.67799e-04       2.36416e+02
 11.300      2.23510e+02       1.79109e+01      -1.24613e+01       3.62989e-04       2.32848e+02
 11.400      2.23066e+02       1.85970e+01      -1.19525e+01       3.58212e-04       2.29326e+02
 11.500      2.22629e+02       1.92658e+01      -1.14128e+01       3.53476e-04       2.25852e+02
 11.600      2.22195e+02       1.99085e+01      -1.08412e+01       3.48791e-04       2.22423e+02
 11.700      2.21761e+02       2.05201e+01      -1.02441e+01       3.44159e-04       2.19041e+02
 11.800      2.21327e+02       2.10972e+01      -9.63156e+00       3.39580e-04       2.15704e+02
 11.900      2.20891e+02       2.16365e+01      -9.01361e+00       3.35056e-04       2.12411e+02
 12.000      2.20455e+02       2.21347e+01      -8.40036e+00       3.30585e-04       2.09163e+02
 12.100      2.20016e+02       2.25884e+01      -7.80190e+00       3.26169e-04       2.05958e+02
 12.200      2.19574e+02       2.29943e+01      -7.22833e+00       3.21808e-04       2.02796e+02
 12.300      2.19128e+02       2.33491e+01      -6.68973e+00       3.17501e-04       1.99676e+02
 12.400      2.18678e+02       2.36510e+01      -6.19248e+00       3.13249e-04       1.96597e+02
 12.500      2.18223e+02       2.39031e+01      -5.73207e+00       3.09053e-04       1.93560e+02
 12.600      2.17762e+02       2.41092e+01      -5.30204e+00       3.04911e-04       1.90563e+02
 12.700      2.17295e+02       2.42730e+01      -4.89590e+00       3.00825e-04       1.87606e+02
 12.800      2.16820e+02       2.43985e+01      -4.50719e+00       2.96796e-04       1.84688e+02
 12.900      2.16336e+02       2.44894e+01      -4.12942e+00       2.92821e-04       1.81809e+02
 13.000      2.15844e+02       2.45496e+01      -3.75611e+00       2.88903e-04       1.78967e+02
 13.100      2.15341e+02       2.45829e+01      -3.38079e+00       2.85042e-04       1.76164e+02
 13.200      2.14828e+02       2.45931e+01      -2.99750e+00       2.81235e-04       1.73398e+02
 13.300      2.14309e+02       2.45839e+01      -2.60851e+00       2.77479e-04       1.70668e+02
 13.400      2.13791e+02       2.45588e+01      -2.22276e+00       2.73764e-04       1.67976e+02
 13.500      2.13282e+02       2.45211e+01      -1.84940e+00       2.70078e-04       1.65320e+02
 13.600      2.12792e+02       2.44745e+01      -1.49756e+00       2.66414e-04       1.62702e+02
 13.700      2.12327e+02       2.44223e+01      -1.17639e+00       2.62762e-04       1.60122e+02
 13.800      2.11896e+02       2.43681e+01      -8.95022e-01       2.59114e-04       1.57578e+02
 13.900      2.11507e+02       2.43154e+01      -6.62598e-01       2.55462e-04       1.55072e+02
 14.000      2.11168e+02       2.42675e+01      -4.88253e-01       2.51798e-04       1.52603e+02
 14.100      2.10887e+02       2.42281e+01      -3.81131e-01       2.48116e-04       1.50171e+02
 14.200      2.10670e+02       2.41991e+01      -3.47717e-01       2.44411e-04       1.47777e+02
 14.300      2.10513e+02       2.41756e+01      -3.81354e-01       2.40690e-04       1.45418e+02
 14.400      2.10406e+02       2.41504e+01      -4.71324e-01       2.36965e-04       1.43095e+02
 14.500      2.10343e+02       2.41165e+01      -6.06911e-01       2.33244e-04       1.40806e+02
 14.600      2.10316e+02       2.40667e+01      -7.77394e-01       2.29539e-04       1.38551e+02
 14.700      2.10316e+02       2.39938e+01      -9.72053e-01       2.25857e-04       1.36329e+02
 14.800      2.10336e+02       2.38908e+01      -1.18017e+00       2.22208e-04       1.34139e+02
 14.900      2.10367e+02       2.37505e+01      -1.39103e+00       2.18599e-04       1.31980e+02
 15.000      2.10403e+02       2.35657e+01      -1.59392e+00       2.15038e-04       1.29852e+02
 15.100      2.10433e+02       2.33294e+01      -1.77810e+00       2.11531e-04       1.27753e+02
 15.200      2.10452e+02       2.30344e+01      -1.93287e+00       2.08086e-04       1.25684e+02
 15.300      2.10451e+02       2.26743e+01      -2.04823e+00       2.04708e-04       1.23643e+02
 15.400      2.10429e+02       2.22506e+01      -2.12247e+00       2.01398e-04       1.21631e+02
 15.500      2.10389e+02       2.17702e+01      -2.15927e+00       1.98154e-04       1.19649e+02
 15.600      2.10333e+02       2.12400e+01      -2.16240e+00       1.94973e-04       1.17697e+02
 15.700      2.10264e+02       2.06667e+01      -2.13562e+00       1.91854e-04       1.15776e+02
 15.800      2.10185e+02       2.00572e+01      -2.08269e+00       1.88795e-04       1.13887e+02
 15.900      2.10098e+02       1.94185e+01      -2.00738e+00       1.85794e-04       1.12030e+02
 16.000      2.10006e+02       1.87574e+01      -1.91344e+00       1.82849e-04       1.10206e+02
 16.100      2.09911e+02       1.80807e+01      -1.80464e+00       1.79959e-04       1.08415e+02
 16.200      2.09817e+02       1.73954e+01      -1.68474e+00       1.77122e-04       1.06658e+02
 16.300      2.09725e+02       1.67083e+01      -1.55752e+00       1.74336e-04       1.04935e+02
 16.400      2.09639e+02       1.60263e+01      -1.42672e+00       1.71599e-04       1.03245e+02
 16.500      2.09562e+02       1.53561e+01      -1.29611e+00       1.68911e-04       1.01590e+02
 16.600      2.09495e+02       1.47048e+01      -1.16945e+00       1.66270e-04       9.99701e+01
 16.700      2.09441e+02       1.40779e+01      -1.04980e+00       1.63674e-04       9.83840e+01
 16.800      2.09400e+02       1.34757e+01      -9.37492e-01       1.61122e-04       9.68310e+01
 16.900      2.09372e+02       1.28974e+01      -8.32221e-01       1.58612e-04       9.53095e+01
 17.000      2.09357e+02       1.23424e+01      -7.33691e-01       1.56141e-04       9.38181e+01
 17.100      2.09354e+02       1.18098e+01      -6.41601e-01       1.53709e-04       9.23553e+01
 17.200      2.09364e+02       1.12989e+01      -5.55651e-01       1.51313e-04       9.09199e+01
 17.300      2.09385e+02       1.08089e+01      -4.75542e-01       1.48952e-04       8.95105e+01
 17.400      2.09417e+02       1.03389e+01      -4.00971e-01       1.46626e-04       8.81260e+01
 17.500      2.09461e+02       9.88831e+00      -3.31639e-01       1.44331e-04       8.67652e+01
 17.600      2.09516e+02       9.45625e+00      -2.67245e-01       1.42068e-04       8.54269e+01
 17.700      2.09581e+02       9.04196e+00      -2.07490e-01       1.39834e-04       8.41101e+01
 17.800      2.09658e+02       8.64469e+00      -1.52075e-01       1.37629e-04       8.28139e+01
 17.900      2.09744e+02       8.26364e+00      -1.00695e-01       1.35452e-04       8.15371e+01
 18.000      2.09840e+02       7.89803e+00      -5.30536e-02       1.33301e-04       8.02790e+01
 18.100      2.09946e+02       7.54710e+00      -8.84901e-03       1.31175e-04       7.90386e+01
 18.200      2.10061e+02       7.21007e+00       3.22188e-02       1.29073e-04       7.78150e+01
 18.300      2.10185e+02       6.88617e+00       7.04494e-02       1.26995e-04       7.66077e+01
 18.400      2.10318e+02       6.57461e+00       1.06145e-01       1.24940e-04       7.54156e+01
 18.500      2.10460e+02       6.27462e+00       1.39604e-01       1.22907e-04       7.42381e+01
 18.600      2.10610e+02       5.98543e+00       1.71128e-01       1.20894e-04       7.30746e+01
 18.700      2.10768e+02       5.70626e+00       2.01016e-01       1.18902e-04       7.19244e+01
 18.800      2.10933e+02       5.43633e+00       2.29569e-01       1.16930e-04       7.07868e+01
 18.900      2.11107e+02       5.17488e+00       2.57086e-01       1.14976e-04       6.96614e+01
 19.000      2.11287e+02       4.92131e+00       2.83714e-01       1.13042e-04       6.85479e+01
 19.100      2.11474e+02       4.67535e+00       3.09348e-01       1.11128e-04       6.74469e+01
 19.200      2.11667e+02       4.43677e+00       3.33856e-01       1.09236e-04       6.63589e+01
 19.300      2.11865e+02       4.20533e+00       3.57108e-01       1.07366e-04       6.52844e+01
 19.400      2.12068e+02       3.98079e+00       3.78975e-01       1.05521e-04       6.42239e+01
 19.500      2.12276e+02       3.76290e+00       3.99326e-01       1.03701e-04       6.31777e+01
 19.600      2.12487e+02       3.55144e+00       4.18029e-01       1.01906e-04       6.21463e+01
 19.700      2.12702e+02       3.34615e+00       4.34956e-01       1.00139e-04       6.11301e+01
 19.800      2.12919e+02       3.14681e+00       4.49975e-01       9.83988e-05       6.01293e+01
 19.900      2.13139e+02       2.95316e+00       4.62956e-01       9.66872e-05       5.91443e+01
 20.000      2.13360e+02       2.76498e+00       4.73769e-01       9.50044e-05       5.81752e+01
 20.100      2.13582e+02       2.58202e+00       4.82283e-01       9.33512e-05       5.72224e+01
 20.200      2.13805e+02       2.40404e+00       4.88368e-01       9.17280e-05       5.62860e+01
 20.300      2.14027e+02       2.23081e+00       4.91894e-01       9.01352e-05       5.53662e+01
