# Data Source: NASA MERRA (version 2)
# Model Time = 2011-02-18 18:00:00
# Location = [  39.1026,  -84.5123 ]
# Fields = [ Z(km), T(K), U(m/s), V(m/s), R(g/cm3), P(mbar) ]
# Ground Height = 0.165
  0.000      2.89753e+02       5.23361e+00      -3.36752e+00       1.22589e-03       1.01944e+03
  0.100      2.88987e+02       5.60545e+00      -3.53614e+00       1.21468e-03       1.00745e+03
  0.200      2.88249e+02       5.98579e+00      -3.71689e+00       1.20348e-03       9.95609e+02
  0.300      2.87495e+02       6.36109e+00      -3.89044e+00       1.19245e-03       9.83901e+02
  0.400      2.86676e+02       6.71773e+00      -4.03758e+00       1.18175e-03       9.72298e+02
  0.500      2.85760e+02       7.03264e+00      -4.15158e+00       1.17150e-03       9.60787e+02
  0.600      2.84737e+02       7.26362e+00      -4.25106e+00       1.16175e-03       9.49374e+02
  0.700      2.83635e+02       7.41823e+00      -4.36017e+00       1.15237e-03       9.38063e+02
  0.800      2.82595e+02       7.68087e+00      -4.51132e+00       1.14278e-03       9.26846e+02
  0.900      2.81759e+02       8.24432e+00      -4.72488e+00       1.13240e-03       9.15712e+02
  1.000      2.81120e+02       9.10880e+00      -4.93000e+00       1.12130e-03       9.04679e+02
  1.100      2.80610e+02       1.01965e+01      -5.02300e+00       1.10979e-03       8.93768e+02
  1.200      2.80182e+02       1.14318e+01      -4.97125e+00       1.09807e-03       8.82985e+02
  1.300      2.79807e+02       1.27415e+01      -4.80093e+00       1.08627e-03       8.72323e+02
  1.400      2.79457e+02       1.40522e+01      -4.54001e+00       1.07448e-03       8.61774e+02
  1.500      2.79102e+02       1.52906e+01      -4.21644e+00       1.06281e-03       8.51332e+02
  1.600      2.78720e+02       1.63931e+01      -3.85506e+00       1.05134e-03       8.40990e+02
  1.700      2.78312e+02       1.73528e+01      -3.46230e+00       1.04005e-03       8.30750e+02
  1.800      2.77892e+02       1.81837e+01      -3.03787e+00       1.02892e-03       8.20615e+02
  1.900      2.77473e+02       1.88998e+01      -2.58148e+00       1.01788e-03       8.10589e+02
  2.000      2.77066e+02       1.95152e+01      -2.09282e+00       1.00691e-03       8.00674e+02
  2.100      2.76680e+02       2.00446e+01      -1.57381e+00       9.95972e-04       7.90873e+02
  2.200      2.76302e+02       2.05064e+01      -1.03719e+00       9.85117e-04       7.81183e+02
  2.300      2.75910e+02       2.09202e+01      -4.99050e-01       9.74412e-04       7.71600e+02
  2.400      2.75485e+02       2.13056e+01       2.45236e-02       9.63924e-04       7.62118e+02
  2.500      2.75006e+02       2.16823e+01       5.17447e-01       9.53716e-04       7.52736e+02
  2.600      2.74454e+02       2.20684e+01       9.64151e-01       9.43842e-04       7.43447e+02
  2.700      2.73828e+02       2.24693e+01       1.35426e+00       9.34297e-04       7.34252e+02
  2.800      2.73139e+02       2.28826e+01       1.68040e+00       9.25043e-04       7.25149e+02
  2.900      2.72395e+02       2.33058e+01       1.93524e+00       9.16042e-04       7.16138e+02
  3.000      2.71607e+02       2.37364e+01       2.11145e+00       9.07258e-04       7.07218e+02
  3.100      2.70783e+02       2.41721e+01       2.20171e+00       8.98656e-04       6.98389e+02
  3.200      2.69934e+02       2.46100e+01       2.20245e+00       8.90202e-04       6.89648e+02
  3.300      2.69068e+02       2.50460e+01       2.11885e+00       8.81861e-04       6.80994e+02
  3.400      2.68193e+02       2.54761e+01       1.95736e+00       8.73600e-04       6.72424e+02
  3.500      2.67320e+02       2.58962e+01       1.72441e+00       8.65389e-04       6.63933e+02
  3.600      2.66456e+02       2.63022e+01       1.42644e+00       8.57194e-04       6.55520e+02
  3.700      2.65610e+02       2.66901e+01       1.07000e+00       8.48986e-04       6.47182e+02
  3.800      2.64792e+02       2.70661e+01       6.68132e-01       8.40733e-04       6.38918e+02
  3.900      2.64017e+02       2.74516e+01       2.43765e-01       8.32400e-04       6.30733e+02
  4.000      2.63297e+02       2.78691e+01      -1.79328e-01       8.23952e-04       6.22629e+02
  4.100      2.62645e+02       2.83414e+01      -5.77379e-01       8.15359e-04       6.14609e+02
  4.200      2.62075e+02       2.88910e+01      -9.26617e-01       8.06588e-04       6.06678e+02
  4.300      2.61599e+02       2.95408e+01      -1.20329e+00       7.97609e-04       5.98837e+02
  4.400      2.61223e+02       3.03016e+01      -1.39200e+00       7.88424e-04       5.91089e+02
  4.500      2.60923e+02       3.11544e+01      -1.49884e+00       7.79105e-04       5.83432e+02
  4.600      2.60673e+02       3.20754e+01      -1.53336e+00       7.69738e-04       5.75865e+02
  4.700      2.60448e+02       3.30407e+01      -1.50508e+00       7.60400e-04       5.68387e+02
  4.800      2.60220e+02       3.40265e+01      -1.42353e+00       7.51168e-04       5.60997e+02
  4.900      2.59965e+02       3.50091e+01      -1.29824e+00       7.42116e-04       5.53693e+02
  5.000      2.59657e+02       3.59651e+01      -1.13871e+00       7.33310e-04       5.46474e+02
  5.100      2.59285e+02       3.68848e+01      -9.53770e-01       7.24773e-04       5.39338e+02
  5.200      2.58856e+02       3.77722e+01      -7.51543e-01       7.16480e-04       5.32285e+02
  5.300      2.58376e+02       3.86321e+01      -5.40123e-01       7.08408e-04       5.25313e+02
  5.400      2.57852e+02       3.94690e+01      -3.27609e-01       7.00533e-04       5.18420e+02
  5.500      2.57291e+02       4.02878e+01      -1.22094e-01       6.92833e-04       5.11605e+02
  5.600      2.56699e+02       4.10931e+01       6.83261e-02       6.85286e-04       5.04867e+02
  5.700      2.56082e+02       4.18895e+01       2.35576e-01       6.77870e-04       4.98205e+02
  5.800      2.55447e+02       4.26803e+01       3.73590e-01       6.70569e-04       4.91616e+02
  5.900      2.54795e+02       4.34656e+01       4.79985e-01       6.63372e-04       4.85099e+02
  6.000      2.54131e+02       4.42453e+01       5.52774e-01       6.56266e-04       4.78651e+02
  6.100      2.53456e+02       4.50193e+01       5.89971e-01       6.49243e-04       4.72272e+02
  6.200      2.52774e+02       4.57877e+01       5.89591e-01       6.42293e-04       4.65958e+02
  6.300      2.52087e+02       4.65503e+01       5.49646e-01       6.35406e-04       4.59709e+02
  6.400      2.51398e+02       4.73070e+01       4.68150e-01       6.28572e-04       4.53522e+02
  6.500      2.50710e+02       4.80577e+01       3.43225e-01       6.21783e-04       4.47396e+02
  6.600      2.50023e+02       4.87999e+01       1.76610e-01       6.15039e-04       4.41331e+02
  6.700      2.49336e+02       4.95283e+01      -2.55728e-02       6.08347e-04       4.35330e+02
  6.800      2.48648e+02       5.02373e+01      -2.56936e-01       6.01716e-04       4.29396e+02
  6.900      2.47956e+02       5.09215e+01      -5.11091e-01       5.95154e-04       4.23532e+02
  7.000      2.47260e+02       5.15753e+01      -7.81652e-01       5.88669e-04       4.17741e+02
  7.100      2.46557e+02       5.21933e+01      -1.06223e+00       5.82268e-04       4.12024e+02
  7.200      2.45846e+02       5.27699e+01      -1.34644e+00       5.75960e-04       4.06384e+02
  7.300      2.45124e+02       5.32996e+01      -1.62790e+00       5.69750e-04       4.00823e+02
  7.400      2.44392e+02       5.37776e+01      -1.90154e+00       5.63643e-04       3.95341e+02
  7.500      2.43646e+02       5.42038e+01      -2.17068e+00       5.57629e-04       3.89931e+02
  7.600      2.42888e+02       5.45797e+01      -2.44187e+00       5.51694e-04       3.84580e+02
  7.700      2.42116e+02       5.49068e+01      -2.72169e+00       5.45824e-04       3.79279e+02
  7.800      2.41330e+02       5.51869e+01      -3.01668e+00       5.40006e-04       3.74018e+02
  7.900      2.40530e+02       5.54213e+01      -3.33343e+00       5.34226e-04       3.68786e+02
  8.000      2.39713e+02       5.56118e+01      -3.67848e+00       5.28472e-04       3.63576e+02
  8.100      2.38881e+02       5.57598e+01      -4.05841e+00       5.22733e-04       3.58379e+02
  8.200      2.38031e+02       5.58671e+01      -4.47978e+00       5.16997e-04       3.53187e+02
  8.300      2.37165e+02       5.59351e+01      -4.94899e+00       5.11255e-04       3.47992e+02
  8.400      2.36282e+02       5.59689e+01      -5.46539e+00       5.05514e-04       3.42804e+02
  8.500      2.35387e+02       5.59776e+01      -6.01885e+00       4.99807e-04       3.37650e+02
  8.600      2.34484e+02       5.59709e+01      -6.59859e+00       4.94165e-04       3.32557e+02
  8.700      2.33576e+02       5.59584e+01      -7.19379e+00       4.88618e-04       3.27552e+02
  8.800      2.32668e+02       5.59497e+01      -7.79367e+00       4.83196e-04       3.22657e+02
  8.900      2.31762e+02       5.59543e+01      -8.38743e+00       4.77925e-04       3.17896e+02
  9.000      2.30865e+02       5.59818e+01      -8.96428e+00       4.72833e-04       3.13290e+02
  9.100      2.29978e+02       5.60418e+01      -9.51342e+00       4.67943e-04       3.08859e+02
  9.200      2.29106e+02       5.61438e+01      -1.00240e+01       4.63279e-04       3.04622e+02
  9.300      2.28253e+02       5.62976e+01      -1.04854e+01       4.58865e-04       3.00596e+02
  9.400      2.27423e+02       5.65109e+01      -1.08879e+01       4.54714e-04       2.96794e+02
  9.500      2.26619e+02       5.67810e+01      -1.12306e+01       4.50804e-04       2.93201e+02
  9.600      2.25842e+02       5.71009e+01      -1.15156e+01       4.47094e-04       2.89792e+02
  9.700      2.25096e+02       5.74634e+01      -1.17451e+01       4.43545e-04       2.86542e+02
  9.800      2.24383e+02       5.78616e+01      -1.19213e+01       4.40122e-04       2.83430e+02
  9.900      2.23706e+02       5.82885e+01      -1.20465e+01       4.36787e-04       2.80433e+02
 10.000      2.23066e+02       5.87370e+01      -1.21229e+01       4.33507e-04       2.77531e+02
 10.100      2.22466e+02       5.92001e+01      -1.21526e+01       4.30248e-04       2.74704e+02
 10.200      2.21910e+02       5.96707e+01      -1.21379e+01       4.26976e-04       2.71933e+02
 10.300      2.21398e+02       6.01419e+01      -1.20810e+01       4.23660e-04       2.69199e+02
 10.400      2.20934e+02       6.06066e+01      -1.19840e+01       4.20269e-04       2.66484e+02
 10.500      2.20520e+02       6.10577e+01      -1.18492e+01       4.16773e-04       2.63773e+02
 10.600      2.20159e+02       6.14883e+01      -1.16789e+01       4.13144e-04       2.61048e+02
 10.700      2.19853e+02       6.18913e+01      -1.14751e+01       4.09355e-04       2.58294e+02
 10.800      2.19604e+02       6.22597e+01      -1.12402e+01       4.05380e-04       2.55496e+02
 10.900      2.19416e+02       6.25865e+01      -1.09763e+01       4.01193e-04       2.52641e+02
 11.000      2.19289e+02       6.28645e+01      -1.06856e+01       3.96773e-04       2.49713e+02
 11.100      2.19226e+02       6.30889e+01      -1.03708e+01       3.92109e-04       2.46706e+02
 11.200      2.19219e+02       6.32606e+01      -1.00360e+01       3.87218e-04       2.43622e+02
 11.300      2.19262e+02       6.33819e+01      -9.68559e+00       3.82127e-04       2.40465e+02
 11.400      2.19348e+02       6.34548e+01      -9.32393e+00       3.76859e-04       2.37243e+02
 11.500      2.19469e+02       6.34815e+01      -8.95537e+00       3.71437e-04       2.33959e+02
 11.600      2.19618e+02       6.34643e+01      -8.58428e+00       3.65885e-04       2.30619e+02
 11.700      2.19789e+02       6.34052e+01      -8.21504e+00       3.60225e-04       2.27228e+02
 11.800      2.19974e+02       6.33065e+01      -7.85200e+00       3.54478e-04       2.23791e+02
 11.900      2.20166e+02       6.31702e+01      -7.49953e+00       3.48665e-04       2.20313e+02
 12.000      2.20358e+02       6.29986e+01      -7.16200e+00       3.42805e-04       2.16800e+02
 12.100      2.20543e+02       6.27939e+01      -6.84376e+00       3.36916e-04       2.13254e+02
 12.200      2.20714e+02       6.25581e+01      -6.54920e+00       3.31017e-04       2.09683e+02
 12.300      2.20864e+02       6.22935e+01      -6.28267e+00       3.25124e-04       2.06089e+02
 12.400      2.20985e+02       6.20023e+01      -6.04854e+00       3.19252e-04       2.02478e+02
 12.500      2.21070e+02       6.16865e+01      -5.85113e+00       3.13415e-04       1.98853e+02
 12.600      2.21116e+02       6.13474e+01      -5.69174e+00       3.07629e-04       1.95222e+02
 12.700      2.21123e+02       6.09849e+01      -5.56679e+00       3.01904e-04       1.91595e+02
 12.800      2.21093e+02       6.05985e+01      -5.47223e+00       2.96252e-04       1.87983e+02
 12.900      2.21027e+02       6.01881e+01      -5.40402e+00       2.90684e-04       1.84395e+02
 13.000      2.20926e+02       5.97532e+01      -5.35812e+00       2.85210e-04       1.80839e+02
 13.100      2.20791e+02       5.92935e+01      -5.33049e+00       2.79839e-04       1.77325e+02
 13.200      2.20624e+02       5.88087e+01      -5.31709e+00       2.74578e-04       1.73860e+02
 13.300      2.20425e+02       5.82984e+01      -5.31388e+00       2.69436e-04       1.70451e+02
 13.400      2.20197e+02       5.77624e+01      -5.31681e+00       2.64420e-04       1.67105e+02
 13.500      2.19941e+02       5.72003e+01      -5.32186e+00       2.59535e-04       1.63827e+02
 13.600      2.19657e+02       5.66118e+01      -5.32497e+00       2.54788e-04       1.60622e+02
 13.700      2.19348e+02       5.59965e+01      -5.32210e+00       2.50183e-04       1.57497e+02
 13.800      2.19013e+02       5.53541e+01      -5.30922e+00       2.45725e-04       1.54455e+02
 13.900      2.18655e+02       5.46843e+01      -5.28228e+00       2.41418e-04       1.51500e+02
 14.000      2.18275e+02       5.39868e+01      -5.23734e+00       2.37266e-04       1.48635e+02
 14.100      2.17875e+02       5.32622e+01      -5.17286e+00       2.33265e-04       1.45861e+02
 14.200      2.17456e+02       5.25124e+01      -5.08982e+00       2.29407e-04       1.43173e+02
 14.300      2.17020e+02       5.17388e+01      -4.98933e+00       2.25683e-04       1.40566e+02
 14.400      2.16569e+02       5.09435e+01      -4.87250e+00       2.22083e-04       1.38037e+02
 14.500      2.16106e+02       5.01279e+01      -4.74044e+00       2.18601e-04       1.35581e+02
 14.600      2.15631e+02       4.92939e+01      -4.59426e+00       2.15228e-04       1.33196e+02
 14.700      2.15147e+02       4.84433e+01      -4.43507e+00       2.11958e-04       1.30878e+02
 14.800      2.14655e+02       4.75777e+01      -4.26396e+00       2.08783e-04       1.28623e+02
 14.900      2.14158e+02       4.66989e+01      -4.08206e+00       2.05696e-04       1.26428e+02
 15.000      2.13658e+02       4.58085e+01      -3.89047e+00       2.02692e-04       1.24290e+02
 15.100      2.13156e+02       4.49084e+01      -3.69029e+00       1.99765e-04       1.22207e+02
 15.200      2.12654e+02       4.40003e+01      -3.48265e+00       1.96908e-04       1.20176e+02
 15.300      2.12154e+02       4.30859e+01      -3.26863e+00       1.94117e-04       1.18194e+02
 15.400      2.11658e+02       4.21669e+01      -3.04936e+00       1.91386e-04       1.16259e+02
 15.500      2.11168e+02       4.12451e+01      -2.82594e+00       1.88710e-04       1.14368e+02
 15.600      2.10686e+02       4.03222e+01      -2.59948e+00       1.86084e-04       1.12519e+02
 15.700      2.10213e+02       3.94000e+01      -2.37108e+00       1.83505e-04       1.10710e+02
 15.800      2.09752e+02       3.84801e+01      -2.14186e+00       1.80966e-04       1.08940e+02
 15.900      2.09304e+02       3.75643e+01      -1.91293e+00       1.78466e-04       1.07205e+02
 16.000      2.08872e+02       3.66543e+01      -1.68539e+00       1.75998e-04       1.05504e+02
 16.100      2.08457e+02       3.57519e+01      -1.46034e+00       1.73560e-04       1.03836e+02
 16.200      2.08061e+02       3.48587e+01      -1.23891e+00       1.71149e-04       1.02199e+02
 16.300      2.07686e+02       3.39767e+01      -1.02219e+00       1.68760e-04       1.00590e+02
 16.400      2.07333e+02       3.31072e+01      -8.11248e-01       1.66390e-04       9.90097e+01
 16.500      2.07004e+02       3.22508e+01      -6.06451e-01       1.64038e-04       9.74555e+01
 16.600      2.06698e+02       3.14069e+01      -4.07687e-01       1.61704e-04       9.59268e+01
 16.700      2.06416e+02       3.05749e+01      -2.14831e-01       1.59387e-04       9.44227e+01
 16.800      2.06156e+02       2.97543e+01      -2.77634e-02       1.57086e-04       9.29424e+01
 16.900      2.05918e+02       2.89445e+01       1.53649e-01       1.54801e-04       9.14851e+01
 17.000      2.05703e+02       2.81449e+01       3.29527e-01       1.52532e-04       9.00499e+01
 17.100      2.05510e+02       2.73550e+01       4.99996e-01       1.50278e-04       8.86362e+01
 17.200      2.05339e+02       2.65741e+01       6.65179e-01       1.48040e-04       8.72432e+01
 17.300      2.05190e+02       2.58019e+01       8.25200e-01       1.45816e-04       8.58703e+01
 17.400      2.05062e+02       2.50376e+01       9.80189e-01       1.43607e-04       8.45166e+01
 17.500      2.04955e+02       2.42807e+01       1.13027e+00       1.41412e-04       8.31818e+01
 17.600      2.04870e+02       2.35307e+01       1.27556e+00       1.39232e-04       8.18650e+01
 17.700      2.04805e+02       2.27870e+01       1.41619e+00       1.37066e-04       8.05658e+01
 17.800      2.04761e+02       2.20490e+01       1.55228e+00       1.34913e-04       7.92837e+01
 17.900      2.04737e+02       2.13162e+01       1.68397e+00       1.32775e-04       7.80179e+01
 18.000      2.04734e+02       2.05880e+01       1.81136e+00       1.30650e-04       7.67682e+01
 18.100      2.04750e+02       1.98638e+01       1.93460e+00       1.28539e-04       7.55340e+01
 18.200      2.04786e+02       1.91431e+01       2.05380e+00       1.26442e-04       7.43147e+01
 18.300      2.04842e+02       1.84253e+01       2.16908e+00       1.24359e-04       7.31101e+01
 18.400      2.04917e+02       1.77099e+01       2.28058e+00       1.22289e-04       7.19197e+01
 18.500      2.05012e+02       1.69962e+01       2.38842e+00       1.20233e-04       7.07430e+01
 18.600      2.05125e+02       1.62838e+01       2.49271e+00       1.18191e-04       6.95798e+01
 18.700      2.05256e+02       1.55728e+01       2.59331e+00       1.16163e-04       6.84300e+01
 18.800      2.05404e+02       1.48643e+01       2.68968e+00       1.14153e-04       6.72942e+01
 18.900      2.05569e+02       1.41595e+01       2.78127e+00       1.12161e-04       6.61728e+01
 19.000      2.05747e+02       1.34597e+01       2.86750e+00       1.10190e-04       6.50664e+01
 19.100      2.05939e+02       1.27659e+01       2.94781e+00       1.08241e-04       6.39754e+01
 19.200      2.06142e+02       1.20795e+01       3.02165e+00       1.06317e-04       6.29002e+01
 19.300      2.06356e+02       1.14017e+01       3.08845e+00       1.04418e-04       6.18411e+01
 19.400      2.06580e+02       1.07336e+01       3.14764e+00       1.02547e-04       6.07985e+01
 19.500      2.06811e+02       1.00765e+01       3.19866e+00       1.00704e-04       5.97727e+01
 19.600      2.07049e+02       9.43154e+00       3.24094e+00       9.88905e-05       5.87639e+01
 19.700      2.07293e+02       8.79996e+00       3.27394e+00       9.71076e-05       5.77723e+01
 19.800      2.07541e+02       8.18298e+00       3.29707e+00       9.53563e-05       5.67982e+01
 19.900      2.07791e+02       7.58178e+00       3.30978e+00       9.36375e-05       5.58418e+01
 20.000      2.08044e+02       6.99758e+00       3.31151e+00       9.19518e-05       5.49031e+01
 20.100      2.08296e+02       6.43159e+00       3.30169e+00       9.03001e-05       5.39823e+01
 20.200      2.08548e+02       5.88501e+00       3.27976e+00       8.86828e-05       5.30794e+01
 20.300      2.08797e+02       5.35906e+00       3.24515e+00       8.71005e-05       5.21947e+01
