# Data Source: NASA MERRA (version 2)
# Model Time = 2011-03-30 18:00:00
# Location = [  39.1026,  -84.5123 ]
# Fields = [ Z(km), T(K), U(m/s), V(m/s), R(g/cm3), P(mbar) ]
# Ground Height = 0.165
  0.000      2.75218e+02      -1.11752e+00      -5.97680e+00       1.28581e-03       1.01563e+03
  0.100      2.74534e+02      -1.18883e+00      -6.21541e+00       1.27307e-03       1.00307e+03
  0.200      2.73870e+02      -1.22762e+00      -6.38796e+00       1.26037e-03       9.90658e+02
  0.300      2.73147e+02      -1.36609e+00      -6.76301e+00       1.24806e-03       9.78391e+02
  0.400      2.72295e+02      -1.72195e+00      -7.56596e+00       1.23642e-03       9.66246e+02
  0.500      2.71338e+02      -2.27423e+00      -8.60881e+00       1.22533e-03       9.54214e+02
  0.600      2.70359e+02      -2.92805e+00      -9.48057e+00       1.21440e-03       9.42288e+02
  0.700      2.69549e+02      -3.62723e+00      -9.85394e+00       1.20277e-03       9.30470e+02
  0.800      2.69159e+02      -4.33565e+00      -9.47620e+00       1.18937e-03       9.18772e+02
  0.900      2.69191e+02      -4.88393e+00      -8.41232e+00       1.17426e-03       9.07206e+02
  1.000      2.69421e+02      -4.98388e+00      -7.01473e+00       1.15849e-03       8.95791e+02
  1.100      2.69705e+02      -4.51531e+00      -5.52636e+00       1.14273e-03       8.84536e+02
  1.200      2.70017e+02      -3.60035e+00      -4.02143e+00       1.12709e-03       8.73440e+02
  1.300      2.70345e+02      -2.37930e+00      -2.56146e+00       1.11162e-03       8.62498e+02
  1.400      2.70674e+02      -9.92488e-01      -1.20799e+00       1.09638e-03       8.51708e+02
  1.500      2.70989e+02       4.32441e-01      -1.40931e-02       1.08143e-03       8.41067e+02
  1.600      2.71269e+02       1.85003e+00       1.02232e+00       1.06683e-03       8.30570e+02
  1.700      2.71489e+02       3.24771e+00       1.92536e+00       1.05267e-03       8.20212e+02
  1.800      2.71628e+02       4.61298e+00       2.71920e+00       1.03902e-03       8.09989e+02
  1.900      2.71662e+02       5.93334e+00       3.42803e+00       1.02594e-03       7.99895e+02
  2.000      2.71574e+02       7.19663e+00       4.07404e+00       1.01348e-03       7.89927e+02
  2.100      2.71378e+02       8.39199e+00       4.67184e+00       1.00157e-03       7.80080e+02
  2.200      2.71092e+02       9.50885e+00       5.23417e+00       9.90122e-04       7.70349e+02
  2.300      2.70737e+02       1.05367e+01       5.77377e+00       9.79044e-04       7.60731e+02
  2.400      2.70331e+02       1.14649e+01       6.30339e+00       9.68255e-04       7.51221e+02
  2.500      2.69892e+02       1.22853e+01       6.83300e+00       9.57687e-04       7.41815e+02
  2.600      2.69422e+02       1.30040e+01       7.35618e+00       9.47325e-04       7.32511e+02
  2.700      2.68918e+02       1.36322e+01       7.86052e+00       9.37174e-04       7.23307e+02
  2.800      2.68377e+02       1.41811e+01       8.33356e+00       9.27239e-04       7.14199e+02
  2.900      2.67797e+02       1.46620e+01       8.76289e+00       9.17524e-04       7.05187e+02
  3.000      2.67173e+02       1.50858e+01       9.13604e+00       9.08033e-04       6.96267e+02
  3.100      2.66510e+02       1.54567e+01       9.44028e+00       8.98751e-04       6.87439e+02
  3.200      2.65817e+02       1.57700e+01       9.66242e+00       8.89638e-04       6.78701e+02
  3.300      2.65107e+02       1.60206e+01       9.78931e+00       8.80654e-04       6.70051e+02
  3.400      2.64390e+02       1.62033e+01       9.80775e+00       8.71758e-04       6.61489e+02
  3.500      2.63677e+02       1.63131e+01       9.70457e+00       8.62915e-04       6.53014e+02
  3.600      2.62980e+02       1.63467e+01       9.46834e+00       8.54088e-04       6.44624e+02
  3.700      2.62301e+02       1.63267e+01       9.10981e+00       8.45266e-04       6.36319e+02
  3.800      2.61641e+02       1.62934e+01       8.65505e+00       8.36453e-04       6.28100e+02
  3.900      2.60999e+02       1.62872e+01       8.13043e+00       8.27652e-04       6.19966e+02
  4.000      2.60374e+02       1.63486e+01       7.56231e+00       8.18867e-04       6.11917e+02
  4.100      2.59766e+02       1.65182e+01       6.97707e+00       8.10102e-04       6.03954e+02
  4.200      2.59174e+02       1.68357e+01       6.40065e+00       8.01360e-04       5.96076e+02
  4.300      2.58599e+02       1.73205e+01       5.84950e+00       7.92641e-04       5.88283e+02
  4.400      2.58043e+02       1.79717e+01       5.33053e+00       7.83943e-04       5.80575e+02
  4.500      2.57506e+02       1.87876e+01       4.85024e+00       7.75261e-04       5.72951e+02
  4.600      2.56991e+02       1.97665e+01       4.41512e+00       7.66592e-04       5.65412e+02
  4.700      2.56500e+02       2.09066e+01       4.03169e+00       7.57934e-04       5.57957e+02
  4.800      2.56033e+02       2.22062e+01       3.70643e+00       7.49284e-04       5.50585e+02
  4.900      2.55592e+02       2.36594e+01       3.44750e+00       7.40642e-04       5.43297e+02
  5.000      2.55171e+02       2.52393e+01       3.27152e+00       7.32025e-04       5.36091e+02
  5.100      2.54763e+02       2.69123e+01       3.19775e+00       7.23456e-04       5.28970e+02
  5.200      2.54362e+02       2.86447e+01       3.24548e+00       7.14956e-04       5.21931e+02
  5.300      2.53960e+02       3.04030e+01       3.43399e+00       7.06545e-04       5.14975e+02
  5.400      2.53550e+02       3.21536e+01       3.78257e+00       6.98242e-04       5.08103e+02
  5.500      2.53126e+02       3.38627e+01       4.31048e+00       6.90066e-04       5.01313e+02
  5.600      2.52680e+02       3.55004e+01       5.03201e+00       6.82033e-04       4.94605e+02
  5.700      2.52212e+02       3.70625e+01       5.92500e+00       6.74145e-04       4.87978e+02
  5.800      2.51719e+02       3.85562e+01       6.95126e+00       6.66398e-04       4.81428e+02
  5.900      2.51202e+02       3.99889e+01       8.07246e+00       6.58789e-04       4.74953e+02
  6.000      2.50659e+02       4.13678e+01       9.25034e+00       6.51314e-04       4.68550e+02
  6.100      2.50091e+02       4.27002e+01       1.04466e+01       6.43971e-04       4.62216e+02
  6.200      2.49496e+02       4.39935e+01       1.16229e+01       6.36755e-04       4.55950e+02
  6.300      2.48874e+02       4.52549e+01       1.27410e+01       6.29664e-04       4.49748e+02
  6.400      2.48225e+02       4.64888e+01       1.37694e+01       6.22695e-04       4.43611e+02
  6.500      2.47550e+02       4.76893e+01       1.47002e+01       6.15844e-04       4.37538e+02
  6.600      2.46852e+02       4.88481e+01       1.55311e+01       6.09108e-04       4.31532e+02
  6.700      2.46133e+02       4.99570e+01       1.62597e+01       6.02485e-04       4.25596e+02
  6.800      2.45395e+02       5.10079e+01       1.68834e+01       5.95970e-04       4.19732e+02
  6.900      2.44640e+02       5.19924e+01       1.73998e+01       5.89561e-04       4.13940e+02
  7.000      2.43870e+02       5.29023e+01       1.78064e+01       5.83254e-04       4.08223e+02
  7.100      2.43087e+02       5.37294e+01       1.81009e+01       5.77047e-04       4.02583e+02
  7.200      2.42294e+02       5.44659e+01       1.82817e+01       5.70936e-04       3.97020e+02
  7.300      2.41493e+02       5.51104e+01       1.83662e+01       5.64907e-04       3.91529e+02
  7.400      2.40688e+02       5.56677e+01       1.83889e+01       5.58939e-04       3.86101e+02
  7.500      2.39882e+02       5.61429e+01       1.83847e+01       5.53010e-04       3.80725e+02
  7.600      2.39077e+02       5.65409e+01       1.83887e+01       5.47099e-04       3.75393e+02
  7.700      2.38279e+02       5.68667e+01       1.84360e+01       5.41187e-04       3.70096e+02
  7.800      2.37489e+02       5.71253e+01       1.85616e+01       5.35254e-04       3.64826e+02
  7.900      2.36712e+02       5.73216e+01       1.88006e+01       5.29282e-04       3.59574e+02
  8.000      2.35950e+02       5.74608e+01       1.91880e+01       5.23254e-04       3.54335e+02
  8.100      2.35207e+02       5.75476e+01       1.97588e+01       5.17152e-04       3.49101e+02
  8.200      2.34486e+02       5.75866e+01       2.05283e+01       5.10978e-04       3.43875e+02
  8.300      2.33787e+02       5.75803e+01       2.14641e+01       5.04768e-04       3.38683e+02
  8.400      2.33110e+02       5.75315e+01       2.25267e+01       4.98564e-04       3.33552e+02
  8.500      2.32456e+02       5.74425e+01       2.36769e+01       4.92406e-04       3.28508e+02
  8.600      2.31825e+02       5.73159e+01       2.48751e+01       4.86331e-04       3.23574e+02
  8.700      2.31217e+02       5.71542e+01       2.60819e+01       4.80374e-04       3.18773e+02
  8.800      2.30632e+02       5.69600e+01       2.72580e+01       4.74571e-04       3.14125e+02
  8.900      2.30071e+02       5.67357e+01       2.83639e+01       4.68953e-04       3.09652e+02
  9.000      2.29535e+02       5.64840e+01       2.93602e+01       4.63552e-04       3.05371e+02
  9.100      2.29022e+02       5.62072e+01       3.02075e+01       4.58395e-04       3.01300e+02
  9.200      2.28534e+02       5.59080e+01       3.08691e+01       4.53510e-04       2.97454e+02
  9.300      2.28071e+02       5.55890e+01       3.13394e+01       4.48883e-04       2.93822e+02
  9.400      2.27631e+02       5.52529e+01       3.16328e+01       4.44482e-04       2.90381e+02
  9.500      2.27214e+02       5.49026e+01       3.17643e+01       4.40276e-04       2.87106e+02
  9.600      2.26820e+02       5.45408e+01       3.17486e+01       4.36233e-04       2.83976e+02
  9.700      2.26448e+02       5.41703e+01       3.16006e+01       4.32323e-04       2.80969e+02
  9.800      2.26097e+02       5.37937e+01       3.13349e+01       4.28519e-04       2.78065e+02
  9.900      2.25767e+02       5.34139e+01       3.09664e+01       4.24793e-04       2.75245e+02
 10.000      2.25457e+02       5.30336e+01       3.05100e+01       4.21117e-04       2.72489e+02
 10.100      2.25166e+02       5.26557e+01       2.99804e+01       4.17468e-04       2.69779e+02
 10.200      2.24895e+02       5.22827e+01       2.93925e+01       4.13819e-04       2.67099e+02
 10.300      2.24642e+02       5.19176e+01       2.87609e+01       4.10148e-04       2.64431e+02
 10.400      2.24406e+02       5.15630e+01       2.81006e+01       4.06430e-04       2.61760e+02
 10.500      2.24188e+02       5.12217e+01       2.74264e+01       4.02645e-04       2.59070e+02
 10.600      2.23987e+02       5.08965e+01       2.67530e+01       3.98770e-04       2.56346e+02
 10.700      2.23801e+02       5.05902e+01       2.60953e+01       3.94786e-04       2.53575e+02
 10.800      2.23631e+02       5.03054e+01       2.54680e+01       3.90674e-04       2.50743e+02
 10.900      2.23476e+02       5.00446e+01       2.48846e+01       3.86417e-04       2.47839e+02
 11.000      2.23334e+02       4.98063e+01       2.43459e+01       3.82017e-04       2.44861e+02
 11.100      2.23202e+02       4.95873e+01       2.38464e+01       3.77485e-04       2.41812e+02
 11.200      2.23078e+02       4.93841e+01       2.33804e+01       3.72830e-04       2.38698e+02
 11.300      2.22959e+02       4.91933e+01       2.29420e+01       3.68063e-04       2.35521e+02
 11.400      2.22843e+02       4.90117e+01       2.25257e+01       3.63195e-04       2.32285e+02
 11.500      2.22729e+02       4.88359e+01       2.21257e+01       3.58234e-04       2.28994e+02
 11.600      2.22612e+02       4.86625e+01       2.17362e+01       3.53192e-04       2.25653e+02
 11.700      2.22491e+02       4.84881e+01       2.13516e+01       3.48078e-04       2.22265e+02
 11.800      2.22363e+02       4.83094e+01       2.09662e+01       3.42901e-04       2.18833e+02
 11.900      2.22226e+02       4.81230e+01       2.05743e+01       3.37670e-04       2.15362e+02
 12.000      2.22078e+02       4.79255e+01       2.01700e+01       3.32394e-04       2.11856e+02
 12.100      2.21915e+02       4.77137e+01       1.97479e+01       3.27082e-04       2.08317e+02
 12.200      2.21736e+02       4.74840e+01       1.93020e+01       3.21743e-04       2.04751e+02
 12.300      2.21538e+02       4.72333e+01       1.88267e+01       3.16384e-04       2.01161e+02
 12.400      2.21318e+02       4.69581e+01       1.83170e+01       3.11013e-04       1.97551e+02
 12.500      2.21078e+02       4.66568e+01       1.77739e+01       3.05643e-04       1.93929e+02
 12.600      2.20820e+02       4.63284e+01       1.72029e+01       3.00288e-04       1.90309e+02
 12.700      2.20546e+02       4.59721e+01       1.66094e+01       2.94961e-04       1.86701e+02
 12.800      2.20258e+02       4.55870e+01       1.59985e+01       2.89675e-04       1.83115e+02
 12.900      2.19959e+02       4.51721e+01       1.53758e+01       2.84440e-04       1.79562e+02
 13.000      2.19652e+02       4.47266e+01       1.47465e+01       2.79268e-04       1.76051e+02
 13.100      2.19337e+02       4.42496e+01       1.41160e+01       2.74170e-04       1.72589e+02
 13.200      2.19019e+02       4.37402e+01       1.34897e+01       2.69153e-04       1.69186e+02
 13.300      2.18699e+02       4.31975e+01       1.28729e+01       2.64227e-04       1.65847e+02
 13.400      2.18380e+02       4.26207e+01       1.22709e+01       2.59399e-04       1.62579e+02
 13.500      2.18063e+02       4.20088e+01       1.16892e+01       2.54677e-04       1.59388e+02
 13.600      2.17752e+02       4.13610e+01       1.11331e+01       2.50067e-04       1.56279e+02
 13.700      2.17449e+02       4.06764e+01       1.06078e+01       2.45575e-04       1.53258e+02
 13.800      2.17156e+02       3.99541e+01       1.01189e+01       2.41206e-04       1.50328e+02
 13.900      2.16875e+02       3.91936e+01       9.67069e+00       2.36963e-04       1.47493e+02
 14.000      2.16606e+02       3.83973e+01       9.26257e+00       2.32844e-04       1.44750e+02
 14.100      2.16350e+02       3.75684e+01       8.89211e+00       2.28842e-04       1.42093e+02
 14.200      2.16105e+02       3.67100e+01       8.55688e+00       2.24951e-04       1.39520e+02
 14.300      2.15873e+02       3.58255e+01       8.25445e+00       2.21167e-04       1.37025e+02
 14.400      2.15651e+02       3.49179e+01       7.98239e+00       2.17484e-04       1.34605e+02
 14.500      2.15441e+02       3.39906e+01       7.73828e+00       2.13897e-04       1.32256e+02
 14.600      2.15243e+02       3.30467e+01       7.51967e+00       2.10401e-04       1.29975e+02
 14.700      2.15054e+02       3.20894e+01       7.32414e+00       2.06993e-04       1.27758e+02
 14.800      2.14877e+02       3.11220e+01       7.14927e+00       2.03668e-04       1.25602e+02
 14.900      2.14709e+02       3.01476e+01       6.99262e+00       2.00422e-04       1.23504e+02
 15.000      2.14552e+02       2.91695e+01       6.85175e+00       1.97252e-04       1.21461e+02
 15.100      2.14404e+02       2.81909e+01       6.72425e+00       1.94153e-04       1.19470e+02
 15.200      2.14266e+02       2.72151e+01       6.60768e+00       1.91122e-04       1.17529e+02
 15.300      2.14138e+02       2.62451e+01       6.49961e+00       1.88155e-04       1.15636e+02
 15.400      2.14018e+02       2.52843e+01       6.39761e+00       1.85251e-04       1.13787e+02
 15.500      2.13907e+02       2.43358e+01       6.29925e+00       1.82405e-04       1.11981e+02
 15.600      2.13804e+02       2.34029e+01       6.20210e+00       1.79614e-04       1.10215e+02
 15.700      2.13710e+02       2.24887e+01       6.10373e+00       1.76876e-04       1.08487e+02
 15.800      2.13624e+02       2.15965e+01       6.00171e+00       1.74189e-04       1.06795e+02
 15.900      2.13546e+02       2.07295e+01       5.89362e+00       1.71549e-04       1.05138e+02
 16.000      2.13475e+02       1.98909e+01       5.77701e+00       1.68954e-04       1.03514e+02
 16.100      2.13412e+02       1.90840e+01       5.64946e+00       1.66403e-04       1.01920e+02
 16.200      2.13355e+02       1.83118e+01       5.50855e+00       1.63892e-04       1.00356e+02
 16.300      2.13306e+02       1.75774e+01       5.35212e+00       1.61420e-04       9.88192e+01
 16.400      2.13263e+02       1.68803e+01       5.18032e+00       1.58985e-04       9.73089e+01
 16.500      2.13227e+02       1.62189e+01       4.99443e+00       1.56586e-04       9.58243e+01
 16.600      2.13197e+02       1.55915e+01       4.79573e+00       1.54222e-04       9.43643e+01
 16.700      2.13173e+02       1.49962e+01       4.58550e+00       1.51891e-04       9.29282e+01
 16.800      2.13156e+02       1.44313e+01       4.36502e+00       1.49593e-04       9.15151e+01
 16.900      2.13145e+02       1.38950e+01       4.13557e+00       1.47327e-04       9.01241e+01
 17.000      2.13141e+02       1.33857e+01       3.89843e+00       1.45092e-04       8.87545e+01
 17.100      2.13142e+02       1.29014e+01       3.65489e+00       1.42886e-04       8.74056e+01
 17.200      2.13149e+02       1.24406e+01       3.40622e+00       1.40709e-04       8.60767e+01
 17.300      2.13161e+02       1.20013e+01       3.15370e+00       1.38560e-04       8.47670e+01
 17.400      2.13180e+02       1.15819e+01       2.89862e+00       1.36437e-04       8.34759e+01
 17.500      2.13204e+02       1.11807e+01       2.64225e+00       1.34341e-04       8.22028e+01
 17.600      2.13233e+02       1.07957e+01       2.38588e+00       1.32271e-04       8.09472e+01
 17.700      2.13268e+02       1.04254e+01       2.13078e+00       1.30225e-04       7.97083e+01
 17.800      2.13308e+02       1.00678e+01       1.87825e+00       1.28204e-04       7.84857e+01
 17.900      2.13354e+02       9.72139e+00       1.62955e+00       1.26206e-04       7.72789e+01
 18.000      2.13404e+02       9.38426e+00       1.38597e+00       1.24230e-04       7.60873e+01
 18.100      2.13460e+02       9.05469e+00       1.14878e+00       1.22277e-04       7.49104e+01
 18.200      2.13520e+02       8.73092e+00       9.19282e-01       1.20345e-04       7.37479e+01
 18.300      2.13585e+02       8.41120e+00       6.98745e-01       1.18435e-04       7.25993e+01
 18.400      2.13655e+02       8.09376e+00       4.88445e-01       1.16545e-04       7.14641e+01
 18.500      2.13729e+02       7.77686e+00       2.89667e-01       1.14675e-04       7.03419e+01
 18.600      2.13808e+02       7.45881e+00       1.03590e-01       1.12825e-04       6.92325e+01
 18.700      2.13891e+02       7.13884e+00      -6.96932e-02       1.10994e-04       6.81359e+01
 18.800      2.13979e+02       6.81672e+00      -2.30736e-01       1.09185e-04       6.70526e+01
 18.900      2.14070e+02       6.49219e+00      -3.80111e-01       1.07397e-04       6.59828e+01
 19.000      2.14164e+02       6.16502e+00      -5.18381e-01       1.05632e-04       6.49270e+01
 19.100      2.14263e+02       5.83499e+00      -6.46113e-01       1.03890e-04       6.38854e+01
 19.200      2.14364e+02       5.50185e+00      -7.63873e-01       1.02171e-04       6.28582e+01
 19.300      2.14468e+02       5.16538e+00      -8.72226e-01       1.00477e-04       6.18459e+01
 19.400      2.14576e+02       4.82532e+00      -9.71741e-01       9.88069e-05       6.08485e+01
 19.500      2.14685e+02       4.48146e+00      -1.06298e+00       9.71623e-05       5.98662e+01
 19.600      2.14797e+02       4.13355e+00      -1.14652e+00       9.55431e-05       5.88993e+01
 19.700      2.14912e+02       3.78136e+00      -1.22292e+00       9.39498e-05       5.79479e+01
 19.800      2.15028e+02       3.42466e+00      -1.29274e+00       9.23827e-05       5.70121e+01
 19.900      2.15145e+02       3.06320e+00      -1.35655e+00       9.08421e-05       5.60920e+01
 20.000      2.15265e+02       2.69676e+00      -1.41493e+00       8.93281e-05       5.51878e+01
 20.100      2.15385e+02       2.32509e+00      -1.46842e+00       8.78410e-05       5.42994e+01
 20.200      2.15507e+02       1.94797e+00      -1.51761e+00       8.63810e-05       5.34270e+01
 20.300      2.15629e+02       1.56516e+00      -1.56306e+00       8.49481e-05       5.25706e+01
