# Data Source: NASA MERRA (version 1)
# Model Time = 2011-06-10 18:00:00
# Location = [  39.1026,  -84.5123 ]
# Fields = [ Z(km), T(K), U(m/s), V(m/s), R(g/cm3), P(mbar) ]
# Ground Height = 0.165
  0.000      3.04826e+02      -1.18969e+00       3.23520e+00       1.15807e-03       1.01314e+03
  0.100      3.04033e+02      -1.23820e+00       3.29126e+00       1.14798e-03       1.00170e+03
  0.200      3.03257e+02      -1.29735e+00       3.32818e+00       1.13791e-03       9.90378e+02
  0.300      3.02389e+02      -1.29586e+00       3.47434e+00       1.12831e-03       9.79210e+02
  0.400      3.01331e+02      -1.16657e+00       3.84349e+00       1.11955e-03       9.68209e+02
  0.500      3.00155e+02      -8.98972e-01       4.34665e+00       1.11133e-03       9.57354e+02
  0.600      2.99053e+02      -5.24017e-01       4.74825e+00       1.10290e-03       9.46595e+02
  0.700      2.98114e+02      -7.22352e-02       4.93178e+00       1.09388e-03       9.35908e+02
  0.800      2.97262e+02       4.28057e-01       4.97893e+00       1.08458e-03       9.25301e+02
  0.900      2.96422e+02       9.55466e-01       4.97928e+00       1.07529e-03       9.14786e+02
  1.000      2.95589e+02       1.51789e+00       4.97810e+00       1.06604e-03       9.04366e+02
  1.100      2.94779e+02       2.12993e+00       5.00655e+00       1.05677e-03       8.94039e+02
  1.200      2.93992e+02       2.78554e+00       5.06300e+00       1.04746e-03       8.83805e+02
  1.300      2.93222e+02       3.46185e+00       5.11910e+00       1.03816e-03       8.73663e+02
  1.400      2.92459e+02       4.13550e+00       5.14569e+00       1.02890e-03       8.63614e+02
  1.500      2.91694e+02       4.78312e+00       5.11365e+00       1.01970e-03       8.53656e+02
  1.600      2.90921e+02       5.38319e+00       4.99547e+00       1.01060e-03       8.43789e+02
  1.700      2.90143e+02       5.93859e+00       4.78553e+00       1.00156e-03       8.34011e+02
  1.800      2.89375e+02       6.46954e+00       4.49375e+00       9.92555e-04       8.24323e+02
  1.900      2.88631e+02       6.99663e+00       4.13039e+00       9.83523e-04       8.14721e+02
  2.000      2.87925e+02       7.54045e+00       3.70569e+00       9.74420e-04       8.05205e+02
  2.100      2.87270e+02       8.12087e+00       3.23004e+00       9.65202e-04       7.95774e+02
  2.200      2.86667e+02       8.73657e+00       2.71810e+00       9.55870e-04       7.86428e+02
  2.300      2.86101e+02       9.36203e+00       2.18938e+00       9.46482e-04       7.77166e+02
  2.400      2.85556e+02       9.97044e+00       1.66363e+00       9.37092e-04       7.67990e+02
  2.500      2.85017e+02       1.05349e+01       1.16065e+00       9.27754e-04       7.58901e+02
  2.600      2.84466e+02       1.10287e+01       7.00193e-01       9.18523e-04       7.49898e+02
  2.700      2.83893e+02       1.14304e+01       2.99070e-01       9.09436e-04       7.40983e+02
  2.800      2.83296e+02       1.17396e+01      -3.73848e-02       9.00493e-04       7.32154e+02
  2.900      2.82678e+02       1.19613e+01      -3.06613e-01       8.91682e-04       7.23409e+02
  3.000      2.82042e+02       1.21002e+01      -5.06051e-01       8.82991e-04       7.14747e+02
  3.100      2.81392e+02       1.21611e+01      -6.33139e-01       8.74408e-04       7.06167e+02
  3.200      2.80729e+02       1.21488e+01      -6.85380e-01       8.65923e-04       6.97667e+02
  3.300      2.80058e+02       1.20703e+01      -6.66363e-01       8.57521e-04       6.89247e+02
  3.400      2.79385e+02       1.19363e+01      -5.90708e-01       8.49185e-04       6.80907e+02
  3.500      2.78717e+02       1.17578e+01      -4.74199e-01       8.40894e-04       6.72646e+02
  3.600      2.78060e+02       1.15460e+01      -3.32618e-01       8.32632e-04       6.64466e+02
  3.700      2.77420e+02       1.13118e+01      -1.81749e-01       8.24379e-04       6.56366e+02
  3.800      2.76803e+02       1.10664e+01      -3.73643e-02       8.16120e-04       6.48347e+02
  3.900      2.76212e+02       1.08203e+01       8.69072e-02       8.07852e-04       6.40408e+02
  4.000      2.75635e+02       1.05826e+01       1.82124e-01       7.99608e-04       6.32548e+02
  4.100      2.75060e+02       1.03623e+01       2.39965e-01       7.91423e-04       6.24768e+02
  4.200      2.74476e+02       1.01685e+01       2.52110e-01       7.83331e-04       6.17066e+02
  4.300      2.73869e+02       1.00100e+01       2.10238e-01       7.75367e-04       6.09442e+02
  4.400      2.73228e+02       9.89596e+00       1.06028e-01       7.67561e-04       6.01895e+02
  4.500      2.72543e+02       9.83394e+00      -6.70419e-02       7.59941e-04       5.94424e+02
  4.600      2.71815e+02       9.81961e+00      -2.99703e-01       7.52496e-04       5.87029e+02
  4.700      2.71054e+02       9.84245e+00      -5.74497e-01       7.45199e-04       5.79708e+02
  4.800      2.70268e+02       9.89187e+00      -8.73895e-01       7.38021e-04       5.72459e+02
  4.900      2.69467e+02       9.95728e+00      -1.18037e+00       7.30934e-04       5.65282e+02
  5.000      2.68659e+02       1.00281e+01      -1.47638e+00       7.23913e-04       5.58175e+02
  5.100      2.67855e+02       1.00937e+01      -1.74441e+00       7.16932e-04       5.51137e+02
  5.200      2.67062e+02       1.01449e+01      -1.96793e+00       7.09968e-04       5.44167e+02
  5.300      2.66283e+02       1.01804e+01      -2.13692e+00       7.03013e-04       5.37264e+02
  5.400      2.65519e+02       1.02028e+01      -2.24399e+00       6.96065e-04       5.30430e+02
  5.500      2.64772e+02       1.02141e+01      -2.28179e+00       6.89124e-04       5.23663e+02
  5.600      2.64043e+02       1.02168e+01      -2.24294e+00       6.82187e-04       5.16964e+02
  5.700      2.63333e+02       1.02131e+01      -2.12007e+00       6.75253e-04       5.10333e+02
  5.800      2.62643e+02       1.02054e+01      -1.90580e+00       6.68321e-04       5.03771e+02
  5.900      2.61975e+02       1.01958e+01      -1.59310e+00       6.61389e-04       4.97277e+02
  6.000      2.61327e+02       1.01837e+01      -1.18673e+00       6.54461e-04       4.90850e+02
  6.100      2.60697e+02       1.01648e+01      -7.05927e-01       6.47543e-04       4.84491e+02
  6.200      2.60083e+02       1.01345e+01      -1.70843e-01       6.40643e-04       4.78200e+02
  6.300      2.59481e+02       1.00884e+01       3.98387e-01       6.33770e-04       4.71975e+02
  6.400      2.58890e+02       1.00220e+01       9.81617e-01       6.26928e-04       4.65817e+02
  6.500      2.58307e+02       9.93078e+00       1.55871e+00       6.20127e-04       4.59725e+02
  6.600      2.57729e+02       9.81022e+00       2.10952e+00       6.13371e-04       4.53699e+02
  6.700      2.57153e+02       9.65597e+00       2.61410e+00       6.06668e-04       4.47738e+02
  6.800      2.56578e+02       9.46918e+00       3.06073e+00       6.00021e-04       4.41842e+02
  6.900      2.56004e+02       9.25858e+00       3.44895e+00       5.93429e-04       4.36011e+02
  7.000      2.55432e+02       9.03343e+00       3.77910e+00       5.86891e-04       4.30243e+02
  7.100      2.54862e+02       8.80299e+00       4.05154e+00       5.80406e-04       4.24540e+02
  7.200      2.54295e+02       8.57655e+00       4.26662e+00       5.73973e-04       4.18900e+02
  7.300      2.53730e+02       8.36336e+00       4.42467e+00       5.67592e-04       4.13323e+02
  7.400      2.53169e+02       8.17269e+00       4.52606e+00       5.61261e-04       4.07809e+02
  7.500      2.52612e+02       8.01381e+00       4.57113e+00       5.54979e-04       4.02358e+02
  7.600      2.52058e+02       7.89553e+00       4.56064e+00       5.48747e-04       3.96968e+02
  7.700      2.51508e+02       7.81878e+00       4.50269e+00       5.42564e-04       3.91639e+02
  7.800      2.50960e+02       7.77786e+00       4.41153e+00       5.36435e-04       3.86370e+02
  7.900      2.50411e+02       7.76681e+00       4.30163e+00       5.30363e-04       3.81161e+02
  8.000      2.49860e+02       7.77971e+00       4.18744e+00       5.24350e-04       3.76011e+02
  8.100      2.49306e+02       7.81063e+00       4.08342e+00       5.18399e-04       3.70918e+02
  8.200      2.48745e+02       7.85363e+00       4.00402e+00       5.12513e-04       3.65882e+02
  8.300      2.48177e+02       7.90278e+00       3.96372e+00       5.06694e-04       3.60902e+02
  8.400      2.47600e+02       7.95213e+00       3.97697e+00       5.00945e-04       3.55978e+02
  8.500      2.47011e+02       7.99577e+00       4.05822e+00       4.95269e-04       3.51108e+02
  8.600      2.46410e+02       8.02846e+00       4.21969e+00       4.89667e-04       3.46291e+02
  8.700      2.45797e+02       8.05065e+00       4.45541e+00       4.84138e-04       3.41529e+02
  8.800      2.45171e+02       8.06556e+00       4.75055e+00       4.78680e-04       3.36819e+02
  8.900      2.44535e+02       8.07643e+00       5.09022e+00       4.73291e-04       3.32163e+02
  9.000      2.43888e+02       8.08650e+00       5.45954e+00       4.67969e-04       3.27559e+02
  9.100      2.43232e+02       8.09901e+00       5.84364e+00       4.62711e-04       3.23008e+02
  9.200      2.42568e+02       8.11718e+00       6.22762e+00       4.57514e-04       3.18508e+02
  9.300      2.41897e+02       8.14428e+00       6.59660e+00       4.52379e-04       3.14061e+02
  9.400      2.41219e+02       8.18352e+00       6.93570e+00       4.47301e-04       3.09666e+02
  9.500      2.40535e+02       8.23814e+00       7.23004e+00       4.42280e-04       3.05322e+02
  9.600      2.39847e+02       8.31140e+00       7.46474e+00       4.37312e-04       3.01028e+02
  9.700      2.39154e+02       8.40648e+00       7.62628e+00       4.32398e-04       2.96786e+02
  9.800      2.38459e+02       8.52637e+00       7.71287e+00       4.27533e-04       2.92594e+02
  9.900      2.37762e+02       8.67390e+00       7.72856e+00       4.22713e-04       2.88450e+02
 10.000      2.37066e+02       8.85190e+00       7.67744e+00       4.17936e-04       2.84355e+02
 10.100      2.36370e+02       9.06323e+00       7.56364e+00       4.13199e-04       2.80307e+02
 10.200      2.35678e+02       9.31071e+00       7.39126e+00       4.08497e-04       2.76305e+02
 10.300      2.34989e+02       9.59719e+00       7.16439e+00       4.03829e-04       2.72349e+02
 10.400      2.34305e+02       9.92551e+00       6.88715e+00       3.99191e-04       2.68438e+02
 10.500      2.33628e+02       1.02985e+01       6.56363e+00       3.94580e-04       2.64571e+02
 10.600      2.32959e+02       1.07190e+01       6.19795e+00       3.89994e-04       2.60747e+02
 10.700      2.32300e+02       1.11899e+01       5.79421e+00       3.85430e-04       2.56966e+02
 10.800      2.31651e+02       1.17140e+01       5.35651e+00       3.80885e-04       2.53227e+02
 10.900      2.31014e+02       1.22941e+01       4.88897e+00       3.76357e-04       2.49529e+02
 11.000      2.30390e+02       1.29294e+01       4.39570e+00       3.71846e-04       2.45871e+02
 11.100      2.29778e+02       1.36086e+01       3.88089e+00       3.67353e-04       2.42255e+02
 11.200      2.29177e+02       1.43191e+01       3.34875e+00       3.62881e-04       2.38680e+02
 11.300      2.28586e+02       1.50478e+01       2.80346e+00       3.58433e-04       2.35147e+02
 11.400      2.28004e+02       1.57821e+01       2.24923e+00       3.54012e-04       2.31656e+02
 11.500      2.27431e+02       1.65090e+01       1.69025e+00       3.49620e-04       2.28206e+02
 11.600      2.26865e+02       1.72157e+01       1.13072e+00       3.45258e-04       2.24799e+02
 11.700      2.26306e+02       1.78892e+01       5.74834e-01       3.40931e-04       2.21434e+02
 11.800      2.25752e+02       1.85169e+01       2.67896e-02       3.36639e-04       2.18111e+02
 11.900      2.25202e+02       1.90859e+01      -5.09210e-01       3.32385e-04       2.14831e+02
 12.000      2.24656e+02       1.95832e+01      -1.02898e+00       3.28171e-04       2.11593e+02
 12.100      2.24113e+02       1.99960e+01      -1.52831e+00       3.23999e-04       2.08398e+02
 12.200      2.23572e+02       2.03116e+01      -2.00301e+00       3.19871e-04       2.05245e+02
 12.300      2.23031e+02       2.05170e+01      -2.44888e+00       3.15787e-04       2.02135e+02
 12.400      2.22490e+02       2.05995e+01      -2.86174e+00       3.11751e-04       1.99067e+02
 12.500      2.21948e+02       2.05548e+01      -3.23859e+00       3.07762e-04       1.96041e+02
 12.600      2.21406e+02       2.03921e+01      -3.57837e+00       3.03818e-04       1.93057e+02
 12.700      2.20864e+02       2.01224e+01      -3.88023e+00       2.99920e-04       1.90113e+02
 12.800      2.20322e+02       1.97563e+01      -4.14330e+00       2.96065e-04       1.87209e+02
 12.900      2.19781e+02       1.93046e+01      -4.36673e+00       2.92252e-04       1.84345e+02
 13.000      2.19242e+02       1.87782e+01      -4.54965e+00       2.88479e-04       1.81519e+02
 13.100      2.18705e+02       1.81877e+01      -4.69121e+00       2.84747e-04       1.78731e+02
 13.200      2.18170e+02       1.75440e+01      -4.79054e+00       2.81052e-04       1.75980e+02
 13.300      2.17637e+02       1.68577e+01      -4.84678e+00       2.77395e-04       1.73266e+02
 13.400      2.17108e+02       1.61398e+01      -4.85908e+00       2.73774e-04       1.70588e+02
 13.500      2.16581e+02       1.54009e+01      -4.82656e+00       2.70187e-04       1.67945e+02
 13.600      2.16059e+02       1.46517e+01      -4.74838e+00       2.66635e-04       1.65338e+02
 13.700      2.15542e+02       1.39032e+01      -4.62366e+00       2.63116e-04       1.62765e+02
 13.800      2.15028e+02       1.31659e+01      -4.45155e+00       2.59629e-04       1.60225e+02
 13.900      2.14521e+02       1.24508e+01      -4.23120e+00       2.56173e-04       1.57719e+02
 14.000      2.14018e+02       1.17685e+01      -3.96173e+00       2.52748e-04       1.55246e+02
 14.100      2.13522e+02       1.11299e+01      -3.64228e+00       2.49352e-04       1.52805e+02
 14.200      2.13032e+02       1.05457e+01      -3.27201e+00       2.45985e-04       1.50395e+02
 14.300      2.12549e+02       1.00252e+01      -2.85061e+00       2.42645e-04       1.48018e+02
 14.400      2.12074e+02       9.56802e+00      -2.38159e+00       2.39334e-04       1.45671e+02
 14.500      2.11606e+02       9.16999e+00      -1.86998e+00       2.36049e-04       1.43355e+02
 14.600      2.11148e+02       8.82681e+00      -1.32082e+00       2.32792e-04       1.41070e+02
 14.700      2.10698e+02       8.53422e+00      -7.39154e-01       2.29561e-04       1.38816e+02
 14.800      2.10259e+02       8.28793e+00      -1.30022e-01       2.26356e-04       1.36593e+02
 14.900      2.09830e+02       8.08370e+00       5.01529e-01       2.23178e-04       1.34400e+02
 15.000      2.09413e+02       7.91725e+00       1.15047e+00       2.20025e-04       1.32238e+02
 15.100      2.09007e+02       7.78431e+00       1.81175e+00       2.16898e-04       1.30106e+02
 15.200      2.08614e+02       7.68061e+00       2.48033e+00       2.13796e-04       1.28004e+02
 15.300      2.08234e+02       7.60190e+00       3.15117e+00       2.10720e-04       1.25933e+02
 15.400      2.07867e+02       7.54389e+00       3.81923e+00       2.07668e-04       1.23890e+02
 15.500      2.07516e+02       7.50233e+00       4.47947e+00       2.04641e-04       1.21878e+02
 15.600      2.07179e+02       7.47294e+00       5.12685e+00       2.01638e-04       1.19895e+02
 15.700      2.06857e+02       7.45146e+00       5.75632e+00       1.98660e-04       1.17941e+02
 15.800      2.06552e+02       7.43362e+00       6.36285e+00       1.95706e-04       1.16016e+02
 15.900      2.06264e+02       7.41515e+00       6.94139e+00       1.92776e-04       1.14119e+02
 16.000      2.05994e+02       7.39179e+00       7.48690e+00       1.89870e-04       1.12251e+02
 16.100      2.05741e+02       7.35927e+00       7.99435e+00       1.86987e-04       1.10412e+02
 16.200      2.05508e+02       7.31331e+00       8.45869e+00       1.84129e-04       1.08600e+02
 16.300      2.05293e+02       7.24967e+00       8.87487e+00       1.81293e-04       1.06817e+02
 16.400      2.05099e+02       7.16405e+00       9.23787e+00       1.78481e-04       1.05060e+02
 16.500      2.04926e+02       7.05221e+00       9.54264e+00       1.75693e-04       1.03332e+02
 16.600      2.04774e+02       6.90986e+00       9.78413e+00       1.72928e-04       1.01630e+02
 16.700      2.04643e+02       6.73275e+00       9.95732e+00       1.70186e-04       9.99545e+01
 16.800      2.04535e+02       6.51795e+00       1.00589e+01       1.67467e-04       9.83060e+01
 16.900      2.04449e+02       6.26753e+00       1.00923e+01       1.64773e-04       9.66836e+01
 17.000      2.04385e+02       5.98467e+00       1.00622e+01       1.62103e-04       9.50873e+01
 17.100      2.04341e+02       5.67258e+00       9.97357e+00       1.59460e-04       9.35168e+01
 17.200      2.04318e+02       5.33446e+00       9.83117e+00       1.56843e-04       9.19718e+01
 17.300      2.04315e+02       4.97352e+00       9.63985e+00       1.54254e-04       9.04521e+01
 17.400      2.04331e+02       4.59294e+00       9.40444e+00       1.51693e-04       8.89573e+01
 17.500      2.04366e+02       4.19593e+00       9.12978e+00       1.49161e-04       8.74873e+01
 17.600      2.04419e+02       3.78569e+00       8.82069e+00       1.46658e-04       8.60418e+01
 17.700      2.04489e+02       3.36542e+00       8.48202e+00       1.44186e-04       8.46204e+01
 17.800      2.04577e+02       2.93833e+00       8.11860e+00       1.41744e-04       8.32231e+01
 17.900      2.04682e+02       2.50760e+00       7.73524e+00       1.39333e-04       8.18493e+01
 18.000      2.04802e+02       2.07644e+00       7.33680e+00       1.36954e-04       8.04990e+01
 18.100      2.04939e+02       1.64805e+00       6.92810e+00       1.34606e-04       7.91717e+01
 18.200      2.05090e+02       1.22563e+00       6.51398e+00       1.32290e-04       7.78672e+01
 18.300      2.05256e+02       8.12383e-01       6.09927e+00       1.30008e-04       7.65853e+01
 18.400      2.05435e+02       4.11500e-01       5.68880e+00       1.27757e-04       7.53257e+01
 18.500      2.05629e+02       2.61873e-02       5.28740e+00       1.25540e-04       7.40880e+01
 18.600      2.05835e+02      -3.40356e-01       4.89992e+00       1.23356e-04       7.28721e+01
 18.700      2.06053e+02      -6.84929e-01       4.53117e+00       1.21205e-04       7.16775e+01
 18.800      2.06283e+02      -1.00433e+00       4.18600e+00       1.19088e-04       7.05041e+01
 18.900      2.06525e+02      -1.29552e+00       3.86903e+00       1.17004e-04       6.93516e+01
 19.000      2.06777e+02      -1.55809e+00       3.58155e+00       1.14954e-04       6.82195e+01
 19.100      2.07038e+02      -1.79389e+00       3.32197e+00       1.12938e-04       6.71076e+01
 19.200      2.07308e+02      -2.00482e+00       3.08862e+00       1.10955e-04       6.60155e+01
 19.300      2.07585e+02      -2.19280e+00       2.87985e+00       1.09007e-04       6.49429e+01
 19.400      2.07869e+02      -2.35973e+00       2.69398e+00       1.07092e-04       6.38894e+01
 19.500      2.08157e+02      -2.50753e+00       2.52934e+00       1.05212e-04       6.28546e+01
 19.600      2.08450e+02      -2.63810e+00       2.38428e+00       1.03365e-04       6.18383e+01
 19.700      2.08747e+02      -2.75335e+00       2.25712e+00       1.01552e-04       6.08400e+01
 19.800      2.09045e+02      -2.85519e+00       2.14620e+00       9.97727e-05       5.98596e+01
 19.900      2.09345e+02      -2.94553e+00       2.04985e+00       9.80271e-05       5.88966e+01
 20.000      2.09644e+02      -3.02628e+00       1.96641e+00       9.63150e-05       5.79508e+01
 20.100      2.09943e+02      -3.09935e+00       1.89420e+00       9.46361e-05       5.70218e+01
 20.200      2.10240e+02      -3.16665e+00       1.83157e+00       9.29903e-05       5.61093e+01
 20.300      2.10534e+02      -3.23009e+00       1.77685e+00       9.13774e-05       5.52131e+01
