# Data Source: NASA GEOS5 Near-Real-Time
# Model Time = 2010-10-08 18:00:00
# Location = [  39.7393, -104.9900 ]
# Fields = [ Z(km), T(K), U(m/s), V(m/s), R(g/cm3), P(mbar) ]
# Ground Height = 1.589
  0.000      3.02249e+02       3.47172e+00       2.53156e+00       1.16793e-03       1.01313e+03
  0.100      3.01616e+02       3.44078e+00       2.52366e+00       1.15670e-03       1.00128e+03
  0.200      3.00984e+02       3.40822e+00       2.51505e+00       1.14558e-03       9.89580e+02
  0.300      3.00344e+02       3.38879e+00       2.51216e+00       1.13461e-03       9.78016e+02
  0.400      2.99688e+02       3.39359e+00       2.51884e+00       1.12381e-03       9.66594e+02
  0.500      2.99007e+02       3.40042e+00       2.51591e+00       1.11321e-03       9.55304e+02
  0.600      2.98294e+02       3.37157e+00       2.47439e+00       1.10283e-03       9.44135e+02
  0.700      2.97575e+02       3.31376e+00       2.41658e+00       1.09256e-03       9.33087e+02
  0.800      2.96902e+02       3.27511e+00       2.41229e+00       1.08222e-03       9.22166e+02
  0.900      2.96290e+02       3.27153e+00       2.48035e+00       1.07176e-03       9.11377e+02
  1.000      2.95689e+02       3.25525e+00       2.53993e+00       1.06138e-03       9.00718e+02
  1.100      2.95050e+02       3.18571e+00       2.51926e+00       1.05124e-03       8.90186e+02
  1.200      2.94389e+02       3.09220e+00       2.44513e+00       1.04128e-03       8.79777e+02
  1.300      2.93740e+02       3.02476e+00       2.37399e+00       1.03138e-03       8.69486e+02
  1.400      2.93095e+02       3.02009e+00       2.35197e+00       1.02155e-03       8.59314e+02
  1.500      2.92412e+02       3.10282e+00       2.41586e+00       1.01196e-03       8.49261e+02
  1.600      2.91655e+02       3.28545e+00       2.58352e+00       1.00272e-03       8.39327e+02
  1.700      2.90819e+02       3.54304e+00       2.81311e+00       9.93829e-04       8.29501e+02
  1.800      2.89908e+02       3.84314e+00       3.05208e+00       9.85262e-04       8.19773e+02
  1.900      2.88946e+02       4.15348e+00       3.27118e+00       9.76921e-04       8.10136e+02
  2.000      2.87980e+02       4.44190e+00       3.46219e+00       9.68642e-04       8.00585e+02
  2.100      2.87051e+02       4.68205e+00       3.61968e+00       9.60287e-04       7.91119e+02
  2.200      2.86168e+02       4.87564e+00       3.74777e+00       9.51827e-04       7.81738e+02
  2.300      2.85334e+02       5.03277e+00       3.85343e+00       9.43264e-04       7.72447e+02
  2.400      2.84543e+02       5.16209e+00       3.94378e+00       9.34622e-04       7.63247e+02
  2.500      2.83776e+02       5.26959e+00       4.02615e+00       9.25961e-04       7.54137e+02
  2.600      2.83016e+02       5.36151e+00       4.10777e+00       9.17340e-04       7.45114e+02
  2.700      2.82242e+02       5.45403e+00       4.19352e+00       9.08823e-04       7.36178e+02
  2.800      2.81433e+02       5.57223e+00       4.28623e+00       9.00476e-04       7.27326e+02
  2.900      2.80571e+02       5.73699e+00       4.38687e+00       8.92352e-04       7.18557e+02
  3.000      2.79667e+02       5.92812e+00       4.48058e+00       8.84413e-04       7.09870e+02
  3.100      2.78746e+02       6.10344e+00       4.54395e+00       8.76575e-04       7.01262e+02
  3.200      2.77832e+02       6.22793e+00       4.55815e+00       8.68762e-04       6.92732e+02
  3.300      2.76930e+02       6.31282e+00       4.53325e+00       8.60957e-04       6.84280e+02
  3.400      2.76039e+02       6.38720e+00       4.49050e+00       8.53162e-04       6.75903e+02
  3.500      2.75157e+02       6.47547e+00       4.44800e+00       8.45383e-04       6.67600e+02
  3.600      2.74281e+02       6.57574e+00       4.40615e+00       8.37633e-04       6.59373e+02
  3.700      2.73404e+02       6.67707e+00       4.35923e+00       8.29934e-04       6.51223e+02
  3.800      2.72521e+02       6.77031e+00       4.30344e+00       8.22299e-04       6.43149e+02
  3.900      2.71634e+02       6.85764e+00       4.24685e+00       8.14724e-04       6.35151e+02
  4.000      2.70747e+02       6.94568e+00       4.20218e+00       8.07195e-04       6.27227e+02
  4.100      2.69863e+02       7.04077e+00       4.18204e+00       7.99701e-04       6.19374e+02
  4.200      2.68985e+02       7.14642e+00       4.19783e+00       7.92232e-04       6.11593e+02
  4.300      2.68116e+02       7.26458e+00       4.26026e+00       7.84783e-04       6.03885e+02
  4.400      2.67258e+02       7.39713e+00       4.37989e+00       7.77348e-04       5.96249e+02
  4.500      2.66411e+02       7.54520e+00       4.56391e+00       7.69927e-04       5.88687e+02
  4.600      2.65575e+02       7.70914e+00       4.81604e+00       7.62526e-04       5.81198e+02
  4.700      2.64748e+02       7.88924e+00       5.13986e+00       7.55149e-04       5.73781e+02
  4.800      2.63927e+02       8.08360e+00       5.53588e+00       7.47801e-04       5.66437e+02
  4.900      2.63114e+02       8.28493e+00       5.99708e+00       7.40481e-04       5.59165e+02
  5.000      2.62309e+02       8.48510e+00       6.51534e+00       7.33189e-04       5.51964e+02
  5.100      2.61512e+02       8.67665e+00       7.08287e+00       7.25924e-04       5.44835e+02
  5.200      2.60724e+02       8.85836e+00       7.69555e+00       7.18684e-04       5.37775e+02
  5.300      2.59946e+02       9.03248e+00       8.35122e+00       7.11466e-04       5.30786e+02
  5.400      2.59180e+02       9.20125e+00       9.04775e+00       7.04268e-04       5.23867e+02
  5.500      2.58424e+02       9.36050e+00       9.77816e+00       6.97094e-04       5.17017e+02
  5.600      2.57670e+02       9.49017e+00       1.05236e+01       6.89964e-04       5.10237e+02
  5.700      2.56911e+02       9.56782e+00       1.12636e+01       6.82902e-04       5.03526e+02
  5.800      2.56138e+02       9.57187e+00       1.19778e+01       6.75927e-04       4.96884e+02
  5.900      2.55350e+02       9.50340e+00       1.26585e+01       6.69043e-04       4.90310e+02
  6.000      2.54552e+02       9.38803e+00       1.33114e+01       6.62233e-04       4.83804e+02
  6.100      2.53751e+02       9.25262e+00       1.39427e+01       6.55482e-04       4.77365e+02
  6.200      2.52952e+02       9.12301e+00       1.45582e+01       6.48773e-04       4.70991e+02
  6.300      2.52156e+02       9.01210e+00       1.51528e+01       6.42104e-04       4.64682e+02
  6.400      2.51360e+02       8.92356e+00       1.57146e+01       6.35480e-04       4.58438e+02
  6.500      2.50563e+02       8.86087e+00       1.62310e+01       6.28906e-04       4.52257e+02
  6.600      2.49763e+02       8.82677e+00       1.66910e+01       6.22387e-04       4.46139e+02
  6.700      2.48960e+02       8.81446e+00       1.70999e+01       6.15920e-04       4.40085e+02
  6.800      2.48159e+02       8.81041e+00       1.74745e+01       6.09497e-04       4.34093e+02
  6.900      2.47362e+02       8.80092e+00       1.78316e+01       6.03109e-04       4.28165e+02
  7.000      2.46574e+02       8.77236e+00       1.81882e+01       5.96751e-04       4.22301e+02
  7.100      2.45797e+02       8.71265e+00       1.85545e+01       5.90412e-04       4.16500e+02
  7.200      2.45036e+02       8.61137e+00       1.89335e+01       5.84086e-04       4.10761e+02
  7.300      2.44294e+02       8.45825e+00       1.93278e+01       5.77764e-04       4.05084e+02
  7.400      2.43574e+02       8.24296e+00       1.97402e+01       5.71438e-04       3.99468e+02
  7.500      2.42878e+02       7.95975e+00       2.01752e+01       5.65105e-04       3.93912e+02
  7.600      2.42204e+02       7.61653e+00       2.06437e+01       5.58775e-04       3.88418e+02
  7.700      2.41546e+02       7.22378e+00       2.11577e+01       5.52461e-04       3.82986e+02
  7.800      2.40901e+02       6.79197e+00       2.17290e+01       5.46173e-04       3.77616e+02
  7.900      2.40264e+02       6.33175e+00       2.23690e+01       5.39923e-04       3.72309e+02
  8.000      2.39632e+02       5.85778e+00       2.30717e+01       5.33722e-04       3.67064e+02
  8.100      2.38999e+02       5.38858e+00       2.38143e+01       5.27579e-04       3.61880e+02
  8.200      2.38359e+02       4.94288e+00       2.45736e+01       5.21504e-04       3.56756e+02
  8.300      2.37708e+02       4.53937e+00       2.53262e+01       5.15507e-04       3.51691e+02
  8.400      2.37042e+02       4.19610e+00       2.60497e+01       5.09595e-04       3.46683e+02
  8.500      2.36360e+02       3.92323e+00       2.67340e+01       5.03766e-04       3.41731e+02
  8.600      2.35664e+02       3.72584e+00       2.73766e+01       4.98015e-04       3.36836e+02
  8.700      2.34959e+02       3.60889e+00       2.79755e+01       4.92332e-04       3.31996e+02
  8.800      2.34247e+02       3.57738e+00       2.85284e+01       4.86712e-04       3.27211e+02
  8.900      2.33532e+02       3.63612e+00       2.90325e+01       4.81147e-04       3.22482e+02
  9.000      2.32823e+02       3.78710e+00       2.94733e+01       4.75615e-04       3.17807e+02
  9.100      2.32138e+02       4.02967e+00       2.98253e+01       4.70084e-04       3.13187e+02
  9.200      2.31494e+02       4.36309e+00       3.00628e+01       4.64520e-04       3.08622e+02
  9.300      2.30909e+02       4.78662e+00       3.01599e+01       4.58892e-04       3.04112e+02
  9.400      2.30399e+02       5.29952e+00       3.00908e+01       4.53171e-04       2.99657e+02
  9.500      2.29977e+02       5.89740e+00       2.98381e+01       4.47337e-04       2.95258e+02
  9.600      2.29642e+02       6.56425e+00       2.94107e+01       4.41403e-04       2.90916e+02
  9.700      2.29387e+02       7.28180e+00       2.88229e+01       4.35386e-04       2.86632e+02
  9.800      2.29208e+02       8.03175e+00       2.80889e+01       4.29304e-04       2.82408e+02
  9.900      2.29100e+02       8.79582e+00       2.72230e+01       4.23173e-04       2.78244e+02
 10.000      2.29059e+02       9.55572e+00       2.62393e+01       4.17009e-04       2.74141e+02
 10.100      2.29074e+02       1.02944e+01       2.51551e+01       4.10835e-04       2.70100e+02
 10.200      2.29129e+02       1.09971e+01       2.39942e+01       4.04683e-04       2.66119e+02
 10.300      2.29206e+02       1.16498e+01       2.27811e+01       3.98586e-04       2.62199e+02
 10.400      2.29287e+02       1.22382e+01       2.15404e+01       3.92576e-04       2.58336e+02
 10.500      2.29354e+02       1.27480e+01       2.02968e+01       3.86681e-04       2.54531e+02
 10.600      2.29389e+02       1.31651e+01       1.90746e+01       3.80928e-04       2.50783e+02
 10.700      2.29376e+02       1.34777e+01       1.78970e+01       3.75340e-04       2.47089e+02
 10.800      2.29316e+02       1.36937e+01       1.67740e+01       3.69909e-04       2.43450e+02
 10.900      2.29218e+02       1.38302e+01       1.57097e+01       3.64615e-04       2.39864e+02
 11.000      2.29091e+02       1.39043e+01       1.47084e+01       3.59441e-04       2.36329e+02
 11.100      2.28944e+02       1.39329e+01       1.37741e+01       3.54370e-04       2.32846e+02
 11.200      2.28787e+02       1.39332e+01       1.29111e+01       3.49384e-04       2.29412e+02
 11.300      2.28628e+02       1.39221e+01       1.21235e+01       3.44468e-04       2.26027e+02
 11.400      2.28476e+02       1.39156e+01       1.14150e+01       3.39608e-04       2.22689e+02
 11.500      2.28329e+02       1.39194e+01       1.07846e+01       3.34804e-04       2.19399e+02
 11.600      2.28183e+02       1.39323e+01       1.02287e+01       3.30065e-04       2.16154e+02
 11.700      2.28030e+02       1.39535e+01       9.74337e+00       3.25398e-04       2.12955e+02
 11.800      2.27865e+02       1.39819e+01       9.32491e+00       3.20810e-04       2.09801e+02
 11.900      2.27681e+02       1.40166e+01       8.96951e+00       3.16309e-04       2.06690e+02
 12.000      2.27473e+02       1.40564e+01       8.67338e+00       3.11900e-04       2.03623e+02
 12.100      2.27235e+02       1.41005e+01       8.43274e+00       3.07589e-04       2.00598e+02
 12.200      2.26960e+02       1.41477e+01       8.24321e+00       3.03381e-04       1.97615e+02
 12.300      2.26651e+02       1.41967e+01       8.09608e+00       2.99272e-04       1.94673e+02
 12.400      2.26312e+02       1.42460e+01       7.98070e+00       2.95252e-04       1.91771e+02
 12.500      2.25946e+02       1.42941e+01       7.88638e+00       2.91315e-04       1.88908e+02
 12.600      2.25558e+02       1.43395e+01       7.80248e+00       2.87453e-04       1.86083e+02
 12.700      2.25152e+02       1.43805e+01       7.71832e+00       2.83658e-04       1.83296e+02
 12.800      2.24732e+02       1.44158e+01       7.62324e+00       2.79924e-04       1.80546e+02
 12.900      2.24302e+02       1.44438e+01       7.50657e+00       2.76244e-04       1.77832e+02
 13.000      2.23867e+02       1.44629e+01       7.35764e+00       2.72612e-04       1.75153e+02
 13.100      2.23429e+02       1.44718e+01       7.16836e+00       2.69022e-04       1.72508e+02
 13.200      2.22989e+02       1.44693e+01       6.94288e+00       2.65475e-04       1.69898e+02
 13.300      2.22545e+02       1.44543e+01       6.68900e+00       2.61972e-04       1.67323e+02
 13.400      2.22096e+02       1.44257e+01       6.41449e+00       2.58515e-04       1.64781e+02
 13.500      2.21640e+02       1.43825e+01       6.12715e+00       2.55104e-04       1.62274e+02
 13.600      2.21176e+02       1.43237e+01       5.83475e+00       2.51742e-04       1.59800e+02
 13.700      2.20703e+02       1.42481e+01       5.54508e+00       2.48430e-04       1.57359e+02
 13.800      2.20218e+02       1.41548e+01       5.26593e+00       2.45168e-04       1.54952e+02
 13.900      2.19722e+02       1.40426e+01       5.00508e+00       2.41957e-04       1.52579e+02
 14.000      2.19212e+02       1.39105e+01       4.77033e+00       2.38799e-04       1.50238e+02
 14.100      2.18689e+02       1.37577e+01       4.56801e+00       2.35693e-04       1.47930e+02
 14.200      2.18153e+02       1.35851e+01       4.39664e+00       2.32635e-04       1.45653e+02
 14.300      2.17610e+02       1.33942e+01       4.25209e+00       2.29619e-04       1.43406e+02
 14.400      2.17063e+02       1.31863e+01       4.13021e+00       2.26637e-04       1.41189e+02
 14.500      2.16517e+02       1.29629e+01       4.02685e+00       2.23686e-04       1.38999e+02
 14.600      2.15974e+02       1.27254e+01       3.93788e+00       2.20758e-04       1.36836e+02
 14.700      2.15439e+02       1.24753e+01       3.85915e+00       2.17849e-04       1.34698e+02
 14.800      2.14915e+02       1.22139e+01       3.78652e+00       2.14953e-04       1.32585e+02
 14.900      2.14407e+02       1.19428e+01       3.71585e+00       2.12067e-04       1.30495e+02
 15.000      2.13919e+02       1.16632e+01       3.64299e+00       2.09184e-04       1.28428e+02
 15.100      2.13453e+02       1.13768e+01       3.56381e+00       2.06302e-04       1.26383e+02
 15.200      2.13015e+02       1.10848e+01       3.47419e+00       2.03415e-04       1.24359e+02
 15.300      2.12606e+02       1.07885e+01       3.37186e+00       2.00524e-04       1.22355e+02
 15.400      2.12224e+02       1.04890e+01       3.25755e+00       1.97633e-04       1.20375e+02
 15.500      2.11869e+02       1.01871e+01       3.13225e+00       1.94748e-04       1.18419e+02
 15.600      2.11539e+02       9.88390e+00       2.99696e+00       1.91873e-04       1.16490e+02
 15.700      2.11233e+02       9.58023e+00       2.85267e+00       1.89014e-04       1.14587e+02
 15.800      2.10949e+02       9.27709e+00       2.70037e+00       1.86174e-04       1.12714e+02
 15.900      2.10686e+02       8.97543e+00       2.54107e+00       1.83358e-04       1.10870e+02
 16.000      2.10442e+02       8.67620e+00       2.37575e+00       1.80569e-04       1.09058e+02
 16.100      2.10216e+02       8.38035e+00       2.20542e+00       1.77813e-04       1.07278e+02
 16.200      2.10007e+02       8.08883e+00       2.03106e+00       1.75092e-04       1.05531e+02
 16.300      2.09813e+02       7.80260e+00       1.85367e+00       1.72409e-04       1.03818e+02
 16.400      2.09633e+02       7.52261e+00       1.67425e+00       1.69767e-04       1.02140e+02
 16.500      2.09465e+02       7.24981e+00       1.49379e+00       1.67171e-04       1.00497e+02
 16.600      2.09309e+02       6.98510e+00       1.31324e+00       1.64621e-04       9.88904e+01
 16.700      2.09163e+02       6.72882e+00       1.13314e+00       1.62117e-04       9.73185e+01
 16.800      2.09028e+02       6.48097e+00       9.53756e-01       1.59657e-04       9.57798e+01
 16.900      2.08903e+02       6.24153e+00       7.75359e-01       1.57239e-04       9.42727e+01
 17.000      2.08789e+02       6.01052e+00       5.98218e-01       1.54859e-04       9.27956e+01
 17.100      2.08687e+02       5.78791e+00       4.22604e-01       1.52517e-04       9.13470e+01
 17.200      2.08595e+02       5.57372e+00       2.48785e-01       1.50209e-04       8.99255e+01
 17.300      2.08514e+02       5.36793e+00       7.70350e-02       1.47935e-04       8.85296e+01
 17.400      2.08444e+02       5.17054e+00      -9.23833e-02       1.45692e-04       8.71581e+01
 17.500      2.08386e+02       4.98154e+00      -2.59197e-01       1.43478e-04       8.58098e+01
 17.600      2.08339e+02       4.80092e+00      -4.23137e-01       1.41292e-04       8.44833e+01
 17.700      2.08303e+02       4.62870e+00      -5.83932e-01       1.39133e-04       8.31777e+01
 17.800      2.08278e+02       4.46485e+00      -7.41312e-01       1.36998e-04       8.18918e+01
 17.900      2.08265e+02       4.30937e+00      -8.95012e-01       1.34886e-04       8.06245e+01
 18.000      2.08264e+02       4.16227e+00      -1.04476e+00       1.32797e-04       7.93749e+01
 18.100      2.08274e+02       4.02353e+00      -1.19028e+00       1.30728e-04       7.81421e+01
 18.200      2.08296e+02       3.89314e+00      -1.33132e+00       1.28679e-04       7.69252e+01
 18.300      2.08329e+02       3.77112e+00      -1.46759e+00       1.26648e-04       7.57233e+01
 18.400      2.08374e+02       3.65744e+00      -1.59883e+00       1.24634e-04       7.45356e+01
 18.500      2.08431e+02       3.55210e+00      -1.72477e+00       1.22637e-04       7.33615e+01
 18.600      2.08500e+02       3.45511e+00      -1.84514e+00       1.20656e-04       7.22000e+01
 18.700      2.08581e+02       3.36645e+00      -1.95967e+00       1.18689e-04       7.10507e+01
 18.800      2.08675e+02       3.28612e+00      -2.06810e+00       1.16736e-04       6.99129e+01
 18.900      2.08780e+02       3.21409e+00      -2.17020e+00       1.14797e-04       6.87862e+01
 19.000      2.08896e+02       3.15023e+00      -2.26594e+00       1.12874e-04       6.76712e+01
 19.100      2.09022e+02       3.09441e+00      -2.35531e+00       1.10967e-04       6.65685e+01
 19.200      2.09158e+02       3.04648e+00      -2.43833e+00       1.09079e-04       6.54787e+01
 19.300      2.09303e+02       3.00631e+00      -2.51498e+00       1.07212e-04       6.44024e+01
 19.400      2.09455e+02       2.97375e+00      -2.58526e+00       1.05367e-04       6.33401e+01
 19.500      2.09614e+02       2.94866e+00      -2.64916e+00       1.03546e-04       6.22923e+01
 19.600      2.09778e+02       2.93091e+00      -2.70670e+00       1.01749e-04       6.12594e+01
 19.700      2.09947e+02       2.92035e+00      -2.75787e+00       9.99783e-05       6.02418e+01
 19.800      2.10121e+02       2.91684e+00      -2.80265e+00       9.82345e-05       5.92400e+01
 19.900      2.10297e+02       2.92025e+00      -2.84106e+00       9.65187e-05       5.82542e+01
 20.000      2.10476e+02       2.93043e+00      -2.87309e+00       9.48318e-05       5.72847e+01
 20.100      2.10656e+02       2.94724e+00      -2.89873e+00       9.31745e-05       5.63318e+01
 20.200      2.10837e+02       2.97054e+00      -2.91800e+00       9.15478e-05       5.53957e+01
 20.300      2.11017e+02       3.00019e+00      -2.93087e+00       8.99522e-05       5.44766e+01
