# Data Source: NASA GEOS5 Near-Real-Time
# Model Time = 2010-10-22 18:00:00
# Location = [  39.7393, -104.9900 ]
# Fields = [ Z(km), T(K), U(m/s), V(m/s), R(g/cm3), P(mbar) ]
# Ground Height = 1.589
  0.000      2.95579e+02       1.26049e+00       2.88596e+00       1.18563e-03       1.00578e+03
  0.100      2.94964e+02       1.24810e+00       2.83655e+00       1.17420e-03       9.94015e+02
  0.200      2.94341e+02       1.24036e+00       2.79655e+00       1.16291e-03       9.82379e+02
  0.300      2.93695e+02       1.24619e+00       2.78386e+00       1.15182e-03       9.70870e+02
  0.400      2.93029e+02       1.26506e+00       2.79076e+00       1.14089e-03       9.59484e+02
  0.500      2.92377e+02       1.28282e+00       2.77262e+00       1.13001e-03       9.48218e+02
  0.600      2.91755e+02       1.29005e+00       2.71394e+00       1.11911e-03       9.37074e+02
  0.700      2.91129e+02       1.29177e+00       2.67959e+00       1.10832e-03       9.26047e+02
  0.800      2.90468e+02       1.29461e+00       2.72692e+00       1.09776e-03       9.15137e+02
  0.900      2.89780e+02       1.30187e+00       2.80711e+00       1.08738e-03       9.04341e+02
  1.000      2.89090e+02       1.31556e+00       2.83966e+00       1.07710e-03       8.93655e+02
  1.100      2.88422e+02       1.33472e+00       2.79842e+00       1.06682e-03       8.83081e+02
  1.200      2.87803e+02       1.35600e+00       2.69979e+00       1.05645e-03       8.72619e+02
  1.300      2.87225e+02       1.36549e+00       2.57745e+00       1.04602e-03       8.62271e+02
  1.400      2.86611e+02       1.32764e+00       2.49830e+00       1.03582e-03       8.52038e+02
  1.500      2.85887e+02       1.20869e+00       2.52463e+00       1.02611e-03       8.41919e+02
  1.600      2.85100e+02       1.00810e+00       2.65413e+00       1.01671e-03       8.31908e+02
  1.700      2.84348e+02       7.40323e-01       2.85562e+00       1.00726e-03       8.22000e+02
  1.800      2.83686e+02       4.26425e-01       3.10713e+00       9.97555e-04       8.12188e+02
  1.900      2.83099e+02       9.84340e-02       3.40231e+00       9.87669e-04       8.02474e+02
  2.000      2.82561e+02      -2.11892e-01       3.73280e+00       9.77687e-04       7.92856e+02
  2.100      2.82043e+02      -4.84542e-01       4.05873e+00       9.67723e-04       7.83337e+02
  2.200      2.81509e+02      -7.05664e-01       4.32377e+00       9.57905e-04       7.73921e+02
  2.300      2.80930e+02      -8.64398e-01       4.49045e+00       9.48329e-04       7.64607e+02
  2.400      2.80292e+02      -9.58237e-01       4.57544e+00       9.39028e-04       7.55390e+02
  2.500      2.79588e+02      -9.86384e-01       4.60489e+00       9.30018e-04       7.46261e+02
  2.600      2.78818e+02      -9.56592e-01       4.60230e+00       9.21282e-04       7.37217e+02
  2.700      2.78000e+02      -8.87420e-01       4.58792e+00       9.12764e-04       7.28258e+02
  2.800      2.77152e+02      -7.97744e-01       4.58035e+00       9.04402e-04       7.19385e+02
  2.900      2.76292e+02      -7.01545e-01       4.57965e+00       8.96135e-04       7.10598e+02
  3.000      2.75440e+02      -6.09355e-01       4.57282e+00       8.87896e-04       7.01893e+02
  3.100      2.74612e+02      -5.29134e-01       4.54651e+00       8.79629e-04       6.93268e+02
  3.200      2.73810e+02      -4.49185e-01       4.48669e+00       8.71330e-04       6.84722e+02
  3.300      2.73028e+02      -3.48529e-01       4.37899e+00       8.63022e-04       6.76256e+02
  3.400      2.72260e+02      -2.09742e-01       4.21109e+00       8.54723e-04       6.67870e+02
  3.500      2.71501e+02      -3.80886e-02       3.98349e+00       8.46452e-04       6.59563e+02
  3.600      2.70746e+02       1.52361e-01       3.70167e+00       8.38224e-04       6.51336e+02
  3.700      2.69992e+02       3.49040e-01       3.37185e+00       8.30051e-04       6.43187e+02
  3.800      2.69242e+02       5.49393e-01       3.00501e+00       8.21921e-04       6.35119e+02
  3.900      2.68505e+02       7.54913e-01       2.61403e+00       8.13812e-04       6.27131e+02
  4.000      2.67787e+02       9.66205e-01       2.21176e+00       8.05707e-04       6.19224e+02
  4.100      2.67084e+02       1.17557e+00       1.81068e+00       7.97616e-04       6.11397e+02
  4.200      2.66389e+02       1.37079e+00       1.42304e+00       7.89563e-04       6.03649e+02
  4.300      2.65692e+02       1.54002e+00       1.06063e+00       7.81572e-04       5.95977e+02
  4.400      2.64993e+02       1.67935e+00       7.25949e-01       7.73647e-04       5.88381e+02
  4.500      2.64296e+02       1.79236e+00       4.12746e-01       7.65773e-04       5.80861e+02
  4.600      2.63606e+02       1.88288e+00       1.14463e-01       7.57939e-04       5.73419e+02
  4.700      2.62929e+02       1.95456e+00      -1.72664e-01       7.50131e-04       5.66054e+02
  4.800      2.62267e+02       2.01060e+00      -4.46405e-01       7.42341e-04       5.58765e+02
  4.900      2.61623e+02       2.05415e+00      -7.03747e-01       7.34562e-04       5.51553e+02
  5.000      2.61000e+02       2.08753e+00      -9.41864e-01       7.26788e-04       5.44415e+02
  5.100      2.60397e+02       2.10675e+00      -1.15938e+00       7.19021e-04       5.37353e+02
  5.200      2.59813e+02       2.10480e+00      -1.35558e+00       7.11269e-04       5.30367e+02
  5.300      2.59245e+02       2.07470e+00      -1.52979e+00       7.03540e-04       5.23458e+02
  5.400      2.58689e+02       2.01147e+00      -1.68142e+00       6.95848e-04       5.16624e+02
  5.500      2.58134e+02       1.91432e+00      -1.81024e+00       6.88222e-04       5.09865e+02
  5.600      2.57568e+02       1.78302e+00      -1.91599e+00       6.80689e-04       5.03179e+02
  5.700      2.56980e+02       1.61731e+00      -1.99849e+00       6.73279e-04       4.96565e+02
  5.800      2.56365e+02       1.41735e+00      -2.05816e+00       6.65999e-04       4.90020e+02
  5.900      2.55726e+02       1.18364e+00      -2.09601e+00       6.58841e-04       4.83546e+02
  6.000      2.55065e+02       9.16681e-01      -2.11307e+00       6.51798e-04       4.77141e+02
  6.100      2.54386e+02       6.16787e-01      -2.11019e+00       6.44861e-04       4.70805e+02
  6.200      2.53690e+02       2.81807e-01      -2.08595e+00       6.38022e-04       4.64537e+02
  6.300      2.52978e+02      -9.20064e-02      -2.03747e+00       6.31276e-04       4.58336e+02
  6.400      2.52252e+02      -5.08422e-01      -1.96184e+00       6.24616e-04       4.52200e+02
  6.500      2.51515e+02      -9.70568e-01      -1.85685e+00       6.18035e-04       4.46128e+02
  6.600      2.50769e+02      -1.47325e+00      -1.72906e+00       6.11525e-04       4.40119e+02
  6.700      2.50018e+02      -2.00551e+00      -1.59117e+00       6.05075e-04       4.34173e+02
  6.800      2.49267e+02      -2.55624e+00      -1.45598e+00       5.98676e-04       4.28290e+02
  6.900      2.48520e+02      -3.11448e+00      -1.33613e+00       5.92318e-04       4.22471e+02
  7.000      2.47778e+02      -3.67267e+00      -1.23813e+00       5.85997e-04       4.16716e+02
  7.100      2.47039e+02      -4.22737e+00      -1.16129e+00       5.79718e-04       4.11021e+02
  7.200      2.46301e+02      -4.77534e+00      -1.10452e+00       5.73485e-04       4.05388e+02
  7.300      2.45563e+02      -5.31334e+00      -1.06671e+00       5.67302e-04       3.99814e+02
  7.400      2.44821e+02      -5.83787e+00      -1.04681e+00       5.61171e-04       3.94299e+02
  7.500      2.44076e+02      -6.34434e+00      -1.04390e+00       5.55096e-04       3.88843e+02
  7.600      2.43327e+02      -6.82796e+00      -1.05714e+00       5.49076e-04       3.83446e+02
  7.700      2.42574e+02      -7.28392e+00      -1.08564e+00       5.43111e-04       3.78108e+02
  7.800      2.41818e+02      -7.70763e+00      -1.12857e+00       5.37204e-04       3.72829e+02
  7.900      2.41058e+02      -8.10220e+00      -1.18547e+00       5.31352e-04       3.67608e+02
  8.000      2.40295e+02      -8.48043e+00      -1.25640e+00       5.25552e-04       3.62446e+02
  8.100      2.39531e+02      -8.85573e+00      -1.34147e+00       5.19802e-04       3.57340e+02
  8.200      2.38766e+02      -9.24151e+00      -1.44076e+00       5.14097e-04       3.52290e+02
  8.300      2.38002e+02      -9.65111e+00      -1.55467e+00       5.08434e-04       3.47294e+02
  8.400      2.37241e+02      -1.00962e+01      -1.68906e+00       5.02810e-04       3.42354e+02
  8.500      2.36485e+02      -1.05870e+01      -1.85467e+00       4.97217e-04       3.37467e+02
  8.600      2.35738e+02      -1.11336e+01      -2.06243e+00       4.91651e-04       3.32636e+02
  8.700      2.35004e+02      -1.17463e+01      -2.32325e+00       4.86105e-04       3.27858e+02
  8.800      2.34284e+02      -1.24350e+01      -2.64758e+00       4.80574e-04       3.23136e+02
  8.900      2.33579e+02      -1.32005e+01      -3.02648e+00       4.75060e-04       3.18467e+02
  9.000      2.32884e+02      -1.40319e+01      -3.42562e+00       4.69574e-04       3.13853e+02
  9.100      2.32193e+02      -1.49173e+01      -3.80891e+00       4.64126e-04       3.09291e+02
  9.200      2.31501e+02      -1.58449e+01      -4.14029e+00       4.58727e-04       3.04783e+02
  9.300      2.30804e+02      -1.68030e+01      -4.38370e+00       4.53387e-04       3.00326e+02
  9.400      2.30097e+02      -1.77758e+01      -4.50920e+00       4.48110e-04       2.95922e+02
  9.500      2.29389e+02      -1.87287e+01      -4.51751e+00       4.42881e-04       2.91569e+02
  9.600      2.28693e+02      -1.96210e+01      -4.41892e+00       4.37676e-04       2.87268e+02
  9.700      2.28021e+02      -2.04119e+01      -4.22368e+00       4.32473e-04       2.83019e+02
  9.800      2.27385e+02      -2.10608e+01      -3.94208e+00       4.27250e-04       2.78822e+02
  9.900      2.26798e+02      -2.15270e+01      -3.58438e+00       4.21988e-04       2.74676e+02
 10.000      2.26267e+02      -2.17811e+01      -3.16167e+00       4.16672e-04       2.70582e+02
 10.100      2.25792e+02      -2.18297e+01      -2.68756e+00       4.11311e-04       2.66539e+02
 10.200      2.25366e+02      -2.16864e+01      -2.17620e+00       4.05918e-04       2.62548e+02
 10.300      2.24987e+02      -2.13648e+01      -1.64169e+00       4.00504e-04       2.58610e+02
 10.400      2.24649e+02      -2.08785e+01      -1.09818e+00       3.95080e-04       2.54724e+02
 10.500      2.24347e+02      -2.02411e+01      -5.59778e-01       3.89657e-04       2.50891e+02
 10.600      2.24079e+02      -1.94667e+01      -3.83935e-02       3.84245e-04       2.47111e+02
 10.700      2.23841e+02      -1.85728e+01       4.72490e-01       3.78851e-04       2.43383e+02
 10.800      2.23634e+02      -1.75784e+01       9.88489e-01       3.73477e-04       2.39708e+02
 10.900      2.23455e+02      -1.65029e+01       1.52526e+00       3.68127e-04       2.36086e+02
 11.000      2.23306e+02      -1.53654e+01       2.09849e+00       3.62803e-04       2.32516e+02
 11.100      2.23184e+02      -1.41850e+01       2.72383e+00       3.57510e-04       2.28999e+02
 11.200      2.23089e+02      -1.29810e+01       3.41696e+00       3.52250e-04       2.25533e+02
 11.300      2.23020e+02      -1.17706e+01       4.18883e+00       3.47026e-04       2.22120e+02
 11.400      2.22969e+02      -1.05593e+01       5.02011e+00       3.41851e-04       2.18758e+02
 11.500      2.22928e+02      -9.34781e+00       5.87955e+00       3.36738e-04       2.15446e+02
 11.600      2.22887e+02      -8.13670e+00       6.73584e+00       3.31700e-04       2.12183e+02
 11.700      2.22837e+02      -6.92670e+00       7.55767e+00       3.26748e-04       2.08969e+02
 11.800      2.22769e+02      -5.71845e+00       8.31376e+00       3.21894e-04       2.05802e+02
 11.900      2.22675e+02      -4.51265e+00       8.97279e+00       3.17149e-04       2.02682e+02
 12.000      2.22545e+02      -3.30996e+00       9.50350e+00       3.12521e-04       1.99608e+02
 12.100      2.22373e+02      -2.11510e+00       9.88565e+00       3.08017e-04       1.96579e+02
 12.200      2.22161e+02      -9.43809e-01       1.01293e+01       3.03629e-04       1.93594e+02
 12.300      2.21914e+02       1.86320e-01       1.02496e+01       2.99347e-04       1.90652e+02
 12.400      2.21636e+02       1.25766e+00       1.02618e+01       2.95162e-04       1.87751e+02
 12.500      2.21330e+02       2.25262e+00       1.01810e+01       2.91066e-04       1.84890e+02
 12.600      2.21000e+02       3.15358e+00       1.00224e+01       2.87051e-04       1.82068e+02
 12.700      2.20652e+02       3.94293e+00       9.80119e+00       2.83110e-04       1.79285e+02
 12.800      2.20288e+02       4.60308e+00       9.53259e+00       2.79235e-04       1.76539e+02
 12.900      2.19912e+02       5.11687e+00       9.23159e+00       2.75418e-04       1.73830e+02
 13.000      2.19529e+02       5.48263e+00       8.90806e+00       2.71655e-04       1.71156e+02
 13.100      2.19143e+02       5.71700e+00       8.56578e+00       2.67941e-04       1.68519e+02
 13.200      2.18756e+02       5.83772e+00       8.20815e+00       2.64271e-04       1.65918e+02
 13.300      2.18374e+02       5.86250e+00       7.83856e+00       2.60642e-04       1.63353e+02
 13.400      2.18000e+02       5.80909e+00       7.46043e+00       2.57050e-04       1.60826e+02
 13.500      2.17638e+02       5.69519e+00       7.07716e+00       2.53490e-04       1.58335e+02
 13.600      2.17291e+02       5.53855e+00       6.69215e+00       2.49960e-04       1.55881e+02
 13.700      2.16965e+02       5.35689e+00       6.30881e+00       2.46455e-04       1.53465e+02
 13.800      2.16662e+02       5.16794e+00       5.93053e+00       2.42973e-04       1.51085e+02
 13.900      2.16386e+02       4.98897e+00       5.56070e+00       2.39511e-04       1.48743e+02
 14.000      2.16137e+02       4.82865e+00       5.20186e+00       2.36069e-04       1.46437e+02
 14.100      2.15912e+02       4.68784e+00       4.85586e+00       2.32650e-04       1.44165e+02
 14.200      2.15706e+02       4.56714e+00       4.52453e+00       2.29256e-04       1.41927e+02
 14.300      2.15515e+02       4.46711e+00       4.20967e+00       2.25891e-04       1.39720e+02
 14.400      2.15335e+02       4.38834e+00       3.91311e+00       2.22556e-04       1.37542e+02
 14.500      2.15163e+02       4.33142e+00       3.63667e+00       2.19255e-04       1.35394e+02
 14.600      2.14993e+02       4.29693e+00       3.38217e+00       2.15990e-04       1.33272e+02
 14.700      2.14824e+02       4.28546e+00       3.15142e+00       2.12762e-04       1.31177e+02
 14.800      2.14649e+02       4.29758e+00       2.94624e+00       2.09574e-04       1.29107e+02
 14.900      2.14466e+02       4.33389e+00       2.76845e+00       2.06428e-04       1.27061e+02
 15.000      2.14271e+02       4.39496e+00       2.61987e+00       2.03326e-04       1.25037e+02
 15.100      2.14060e+02       4.48080e+00       2.50154e+00       2.00269e-04       1.23035e+02
 15.200      2.13834e+02       4.58894e+00       2.41123e+00       1.97256e-04       1.21057e+02
 15.300      2.13597e+02       4.71628e+00       2.34585e+00       1.94289e-04       1.19103e+02
 15.400      2.13349e+02       4.85970e+00       2.30231e+00       1.91367e-04       1.17176e+02
 15.500      2.13094e+02       5.01609e+00       2.27751e+00       1.88489e-04       1.15276e+02
 15.600      2.12834e+02       5.18234e+00       2.26835e+00       1.85656e-04       1.13405e+02
 15.700      2.12572e+02       5.35535e+00       2.27175e+00       1.82867e-04       1.11564e+02
 15.800      2.12308e+02       5.53198e+00       2.28461e+00       1.80122e-04       1.09753e+02
 15.900      2.12046e+02       5.70915e+00       2.30383e+00       1.77421e-04       1.07974e+02
 16.000      2.11788e+02       5.88373e+00       2.32632e+00       1.74764e-04       1.06227e+02
 16.100      2.11537e+02       6.05262e+00       2.34898e+00       1.72149e-04       1.04514e+02
 16.200      2.11294e+02       6.21269e+00       2.36873e+00       1.69578e-04       1.02834e+02
 16.300      2.11061e+02       6.36085e+00       2.38247e+00       1.67049e-04       1.01189e+02
 16.400      2.10842e+02       6.49399e+00       2.38711e+00       1.64561e-04       9.95791e+01
 16.500      2.10638e+02       6.61027e+00       2.38083e+00       1.62115e-04       9.80038e+01
 16.600      2.10448e+02       6.71020e+00       2.36412e+00       1.59709e-04       9.64617e+01
 16.700      2.10272e+02       6.79452e+00       2.33776e+00       1.57339e-04       9.49511e+01
 16.800      2.10109e+02       6.86401e+00       2.30251e+00       1.55006e-04       9.34704e+01
 16.900      2.09960e+02       6.91942e+00       2.25913e+00       1.52706e-04       9.20182e+01
 17.000      2.09823e+02       6.96153e+00       2.20838e+00       1.50439e-04       9.05930e+01
 17.100      2.09699e+02       6.99108e+00       2.15103e+00       1.48202e-04       8.91935e+01
 17.200      2.09587e+02       7.00885e+00       2.08784e+00       1.45995e-04       8.78182e+01
 17.300      2.09487e+02       7.01558e+00       2.01957e+00       1.43816e-04       8.64661e+01
 17.400      2.09398e+02       7.01206e+00       1.94699e+00       1.41664e-04       8.51358e+01
 17.500      2.09319e+02       6.99903e+00       1.87087e+00       1.39537e-04       8.38263e+01
 17.600      2.09252e+02       6.97725e+00       1.79195e+00       1.37434e-04       8.25364e+01
 17.700      2.09194e+02       6.94750e+00       1.71102e+00       1.35354e-04       8.12652e+01
 17.800      2.09147e+02       6.91053e+00       1.62883e+00       1.33297e-04       8.00116e+01
 17.900      2.09108e+02       6.86711e+00       1.54614e+00       1.31261e-04       7.87747e+01
 18.000      2.09079e+02       6.81798e+00       1.46372e+00       1.29244e-04       7.75537e+01
 18.100      2.09058e+02       6.76393e+00       1.38233e+00       1.27247e-04       7.63477e+01
 18.200      2.09045e+02       6.70570e+00       1.30273e+00       1.25268e-04       7.51559e+01
 18.300      2.09041e+02       6.64407e+00       1.22570e+00       1.23307e-04       7.39775e+01
 18.400      2.09043e+02       6.57978e+00       1.15198e+00       1.21362e-04       7.28118e+01
 18.500      2.09053e+02       6.51361e+00       1.08235e+00       1.19434e-04       7.16583e+01
 18.600      2.09070e+02       6.44631e+00       1.01757e+00       1.17521e-04       7.05161e+01
 18.700      2.09093e+02       6.37864e+00       9.58382e-01       1.15623e-04       6.93848e+01
 18.800      2.09121e+02       6.31106e+00       9.05094e-01       1.13740e-04       6.82645e+01
 18.900      2.09156e+02       6.24382e+00       8.57641e-01       1.11874e-04       6.71558e+01
 19.000      2.09197e+02       6.17712e+00       8.15943e-01       1.10027e-04       6.60594e+01
 19.100      2.09243e+02       6.11122e+00       7.79921e-01       1.08198e-04       6.49759e+01
 19.200      2.09294e+02       6.04631e+00       7.49493e-01       1.06390e-04       6.39059e+01
 19.300      2.09351e+02       5.98264e+00       7.24580e-01       1.04604e-04       6.28498e+01
 19.400      2.09413e+02       5.92042e+00       7.05102e-01       1.02840e-04       6.18082e+01
 19.500      2.09480e+02       5.85988e+00       6.90977e-01       1.01099e-04       6.07814e+01
 19.600      2.09551e+02       5.80125e+00       6.82127e-01       9.93827e-05       5.97699e+01
 19.700      2.09627e+02       5.74474e+00       6.78470e-01       9.76913e-05       5.87741e+01
 19.800      2.09708e+02       5.69059e+00       6.79928e-01       9.60256e-05       5.77942e+01
 19.900      2.09793e+02       5.63902e+00       6.86418e-01       9.43861e-05       5.68305e+01
 20.000      2.09882e+02       5.59026e+00       6.97862e-01       9.27736e-05       5.58833e+01
 20.100      2.09976e+02       5.54452e+00       7.14179e-01       9.11885e-05       5.49529e+01
 20.200      2.10073e+02       5.50204e+00       7.35289e-01       8.96312e-05       5.40394e+01
 20.300      2.10173e+02       5.46304e+00       7.61111e-01       8.81022e-05       5.31430e+01
