# Data Source: NASA MERRA (version 1)
# Model Time = 2011-05-27 18:00:00
# Location = [  39.1026,  -84.5123 ]
# Fields = [ Z(km), T(K), U(m/s), V(m/s), R(g/cm3), P(mbar) ]
# Ground Height = 0.165
  0.000      2.90135e+02       1.80333e+00       5.67009e-01       1.21789e-03       1.01412e+03
  0.100      2.89356e+02       1.89654e+00       5.44749e-01       1.20685e-03       1.00223e+03
  0.200      2.88599e+02       1.98102e+00       5.07261e-01       1.19583e-03       9.90481e+02
  0.300      2.87747e+02       2.10292e+00       5.35120e-01       1.18529e-03       9.78852e+02
  0.400      2.86701e+02       2.30036e+00       7.00813e-01       1.17561e-03       9.67327e+02
  0.500      2.85555e+02       2.51855e+00       9.82828e-01       1.16638e-03       9.55899e+02
  0.600      2.84521e+02       2.64521e+00       1.29974e+00       1.15674e-03       9.44567e+02
  0.700      2.83666e+02       2.63019e+00       1.58770e+00       1.14643e-03       9.33332e+02
  0.800      2.82898e+02       2.49008e+00       1.80273e+00       1.13583e-03       9.22196e+02
  0.900      2.82214e+02       2.28446e+00       1.94148e+00       1.12496e-03       9.11164e+02
  1.000      2.81791e+02       2.14970e+00       2.07724e+00       1.11315e-03       9.00247e+02
  1.100      2.81770e+02       2.19851e+00       2.27631e+00       1.09989e-03       8.89457e+02
  1.200      2.82046e+02       2.40472e+00       2.53780e+00       1.08564e-03       8.78795e+02
  1.300      2.82452e+02       2.70499e+00       2.84284e+00       1.07109e-03       8.68262e+02
  1.400      2.82816e+02       3.03597e+00       3.17254e+00       1.05689e-03       8.57858e+02
  1.500      2.82972e+02       3.33446e+00       3.50803e+00       1.04365e-03       8.47582e+02
  1.600      2.82829e+02       3.55853e+00       3.82993e+00       1.03168e-03       8.37433e+02
  1.700      2.82457e+02       3.70912e+00       4.11794e+00       1.02067e-03       8.27404e+02
  1.800      2.81943e+02       3.79233e+00       4.35159e+00       1.01027e-03       8.17490e+02
  1.900      2.81377e+02       3.81426e+00       4.51045e+00       1.00016e-03       8.07684e+02
  2.000      2.80847e+02       3.78103e+00       4.57413e+00       9.90013e-04       7.97981e+02
  2.100      2.80410e+02       3.70294e+00       4.53361e+00       9.79622e-04       7.88377e+02
  2.200      2.80053e+02       3.59941e+00       4.40456e+00       9.69045e-04       7.78872e+02
  2.300      2.79756e+02       3.49107e+00       4.20592e+00       9.58362e-04       7.69468e+02
  2.400      2.79497e+02       3.39852e+00       3.95660e+00       9.47653e-04       7.60165e+02
  2.500      2.79255e+02       3.34240e+00       3.67553e+00       9.36994e-04       7.50964e+02
  2.600      2.79010e+02       3.33957e+00       3.37918e+00       9.26453e-04       7.41866e+02
  2.700      2.78755e+02       3.38633e+00       3.07051e+00       9.16057e-04       7.32869e+02
  2.800      2.78482e+02       3.47192e+00       2.74784e+00       9.05823e-04       7.23972e+02
  2.900      2.78186e+02       3.58558e+00       2.40950e+00       8.95764e-04       7.15172e+02
  3.000      2.77861e+02       3.71655e+00       2.05382e+00       8.85896e-04       7.06468e+02
  3.100      2.77502e+02       3.85407e+00       1.67911e+00       8.76232e-04       6.97859e+02
  3.200      2.77107e+02       3.98777e+00       1.28368e+00       8.66771e-04       6.89341e+02
  3.300      2.76682e+02       4.10796e+00       8.65785e-01       8.57490e-04       6.80915e+02
  3.400      2.76236e+02       4.20509e+00       4.23664e-01       8.48363e-04       6.72579e+02
  3.500      2.75774e+02       4.26956e+00      -4.44316e-02       8.39363e-04       6.64332e+02
  3.600      2.75305e+02       4.29179e+00      -5.40257e-01       8.30466e-04       6.56172e+02
  3.700      2.74836e+02       4.26227e+00      -1.06554e+00       8.21649e-04       6.48099e+02
  3.800      2.74370e+02       4.18008e+00      -1.61763e+00       8.12900e-04       6.40112e+02
  3.900      2.73904e+02       4.06165e+00      -2.18514e+00       8.04230e-04       6.32209e+02
  4.000      2.73433e+02       3.92548e+00      -2.75557e+00       7.95652e-04       6.24389e+02
  4.100      2.72951e+02       3.79009e+00      -3.31646e+00       7.87181e-04       6.16653e+02
  4.200      2.72453e+02       3.67400e+00      -3.85535e+00       7.78828e-04       6.08997e+02
  4.300      2.71936e+02       3.59570e+00      -4.35976e+00       7.70604e-04       6.01423e+02
  4.400      2.71394e+02       3.57169e+00      -4.81833e+00       7.62521e-04       5.93928e+02
  4.500      2.70826e+02       3.60398e+00      -5.22762e+00       7.54579e-04       5.86512e+02
  4.600      2.70232e+02       3.68833e+00      -5.58764e+00       7.46774e-04       5.79173e+02
  4.700      2.69613e+02       3.82044e+00      -5.89842e+00       7.39101e-04       5.71909e+02
  4.800      2.68970e+02       3.99602e+00      -6.15998e+00       7.31557e-04       5.64720e+02
  4.900      2.68301e+02       4.21079e+00      -6.37233e+00       7.24138e-04       5.57604e+02
  5.000      2.67608e+02       4.46045e+00      -6.53551e+00       7.16841e-04       5.50559e+02
  5.100      2.66892e+02       4.73991e+00      -6.65005e+00       7.09661e-04       5.43586e+02
  5.200      2.66154e+02       5.03986e+00      -6.71919e+00       7.02591e-04       5.36681e+02
  5.300      2.65397e+02       5.34969e+00      -6.74700e+00       6.95620e-04       5.29846e+02
  5.400      2.64625e+02       5.65876e+00      -6.73754e+00       6.88740e-04       5.23079e+02
  5.500      2.63839e+02       5.95645e+00      -6.69490e+00       6.81941e-04       5.16379e+02
  5.600      2.63044e+02       6.23215e+00      -6.62313e+00       6.75215e-04       5.09745e+02
  5.700      2.62242e+02       6.47523e+00      -6.52632e+00       6.68554e-04       5.03177e+02
  5.800      2.61435e+02       6.67538e+00      -6.40853e+00       6.61949e-04       4.96673e+02
  5.900      2.60627e+02       6.82906e+00      -6.27360e+00       6.55394e-04       4.90234e+02
  6.000      2.59819e+02       6.93928e+00      -6.12515e+00       6.48883e-04       4.83859e+02
  6.100      2.59013e+02       7.00934e+00      -5.96681e+00       6.42411e-04       4.77548e+02
  6.200      2.58212e+02       7.04250e+00      -5.80220e+00       6.35973e-04       4.71300e+02
  6.300      2.57418e+02       7.04206e+00      -5.63493e+00       6.29563e-04       4.65114e+02
  6.400      2.56632e+02       7.01129e+00      -5.46863e+00       6.23177e-04       4.58991e+02
  6.500      2.55857e+02       6.95348e+00      -5.30691e+00       6.16811e-04       4.52931e+02
  6.600      2.55095e+02       6.87204e+00      -5.15337e+00       6.10460e-04       4.46932e+02
  6.700      2.54346e+02       6.77304e+00      -5.01092e+00       6.04125e-04       4.40994e+02
  6.800      2.53606e+02       6.66514e+00      -4.88182e+00       5.97814e-04       4.35118e+02
  6.900      2.52873e+02       6.55711e+00      -4.76832e+00       5.91534e-04       4.29303e+02
  7.000      2.52145e+02       6.45771e+00      -4.67264e+00       5.85291e-04       4.23549e+02
  7.100      2.51418e+02       6.37572e+00      -4.59703e+00       5.79092e-04       4.17855e+02
  7.200      2.50690e+02       6.31989e+00      -4.54372e+00       5.72944e-04       4.12222e+02
  7.300      2.49958e+02       6.29900e+00      -4.51495e+00       5.66853e-04       4.06648e+02
  7.400      2.49219e+02       6.32181e+00      -4.51295e+00       5.60824e-04       4.01135e+02
  7.500      2.48471e+02       6.39571e+00      -4.53933e+00       5.54864e-04       3.95680e+02
  7.600      2.47714e+02       6.51769e+00      -4.59086e+00       5.48971e-04       3.90284e+02
  7.700      2.46947e+02       6.68000e+00      -4.66210e+00       5.43143e-04       3.84947e+02
  7.800      2.46173e+02       6.87483e+00      -4.74760e+00       5.37377e-04       3.79666e+02
  7.900      2.45392e+02       7.09439e+00      -4.84191e+00       5.31671e-04       3.74442e+02
  8.000      2.44604e+02       7.33091e+00      -4.93958e+00       5.26021e-04       3.69275e+02
  8.100      2.43811e+02       7.57658e+00      -5.03516e+00       5.20425e-04       3.64162e+02
  8.200      2.43014e+02       7.82362e+00      -5.12321e+00       5.14881e-04       3.59104e+02
  8.300      2.42212e+02       8.06425e+00      -5.19827e+00       5.09387e-04       3.54099e+02
  8.400      2.41407e+02       8.29067e+00      -5.25491e+00       5.03940e-04       3.49149e+02
  8.500      2.40599e+02       8.49747e+00      -5.29019e+00       4.98538e-04       3.44251e+02
  8.600      2.39789e+02       8.68495e+00      -5.30722e+00       4.93181e-04       3.39405e+02
  8.700      2.38975e+02       8.85425e+00      -5.31001e+00       4.87871e-04       3.34611e+02
  8.800      2.38158e+02       9.00650e+00      -5.30256e+00       4.82607e-04       3.29869e+02
  8.900      2.37337e+02       9.14283e+00      -5.28887e+00       4.77390e-04       3.25178e+02
  9.000      2.36511e+02       9.26439e+00      -5.27295e+00       4.72220e-04       3.20537e+02
  9.100      2.35681e+02       9.37232e+00      -5.25879e+00       4.67097e-04       3.15947e+02
  9.200      2.34846e+02       9.46774e+00      -5.25041e+00       4.62022e-04       3.11407e+02
  9.300      2.34006e+02       9.55179e+00      -5.25181e+00       4.56995e-04       3.06917e+02
  9.400      2.33161e+02       9.62562e+00      -5.26698e+00       4.52016e-04       3.02476e+02
  9.500      2.32309e+02       9.69036e+00      -5.29983e+00       4.47085e-04       2.98084e+02
  9.600      2.31453e+02       9.74765e+00      -5.35087e+00       4.42199e-04       2.93740e+02
  9.700      2.30599e+02       9.79967e+00      -5.41668e+00       4.37348e-04       2.89445e+02
  9.800      2.29749e+02       9.84861e+00      -5.49357e+00       4.32524e-04       2.85198e+02
  9.900      2.28910e+02       9.89669e+00      -5.57789e+00       4.27719e-04       2.81000e+02
 10.000      2.28086e+02       9.94612e+00      -5.66596e+00       4.22925e-04       2.76850e+02
 10.100      2.27282e+02       9.99910e+00      -5.75411e+00       4.18133e-04       2.72748e+02
 10.200      2.26502e+02       1.00578e+01      -5.83868e+00       4.13336e-04       2.68694e+02
 10.300      2.25752e+02       1.01246e+01      -5.91599e+00       4.08527e-04       2.64688e+02
 10.400      2.25036e+02       1.02015e+01      -5.98239e+00       4.03698e-04       2.60729e+02
 10.500      2.24358e+02       1.02907e+01      -6.03419e+00       3.98843e-04       2.56818e+02
 10.600      2.23725e+02       1.03946e+01      -6.06774e+00       3.93956e-04       2.52955e+02
 10.700      2.23139e+02       1.05153e+01      -6.07936e+00       3.89030e-04       2.49138e+02
 10.800      2.22604e+02       1.06534e+01      -6.06611e+00       3.84065e-04       2.45369e+02
 10.900      2.22115e+02       1.08066e+01      -6.02651e+00       3.79070e-04       2.41646e+02
 11.000      2.21668e+02       1.09717e+01      -5.95929e+00       3.74056e-04       2.37970e+02
 11.100      2.21259e+02       1.11461e+01      -5.86314e+00       3.69034e-04       2.34341e+02
 11.200      2.20883e+02       1.13267e+01      -5.73678e+00       3.64012e-04       2.30759e+02
 11.300      2.20534e+02       1.15108e+01      -5.57892e+00       3.59000e-04       2.27223e+02
 11.400      2.20210e+02       1.16953e+01      -5.38828e+00       3.54008e-04       2.23734e+02
 11.500      2.19905e+02       1.18775e+01      -5.16356e+00       3.49044e-04       2.20291e+02
 11.600      2.19614e+02       1.20543e+01      -4.90347e+00       3.44117e-04       2.16894e+02
 11.700      2.19334e+02       1.22230e+01      -4.60673e+00       3.39233e-04       2.13543e+02
 11.800      2.19059e+02       1.23807e+01      -4.27205e+00       3.34402e-04       2.10238e+02
 11.900      2.18785e+02       1.25243e+01      -3.89814e+00       3.29629e-04       2.06978e+02
 12.000      2.18508e+02       1.26512e+01      -3.48371e+00       3.24922e-04       2.03764e+02
 12.100      2.18222e+02       1.27582e+01      -3.02748e+00       3.20286e-04       2.00594e+02
 12.200      2.17925e+02       1.28430e+01      -2.52877e+00       3.15727e-04       1.97470e+02
 12.300      2.17616e+02       1.29053e+01      -1.99139e+00       3.11244e-04       1.94390e+02
 12.400      2.17298e+02       1.29460e+01      -1.42108e+00       3.06832e-04       1.91354e+02
 12.500      2.16972e+02       1.29661e+01      -8.23571e-01       3.02487e-04       1.88362e+02
 12.600      2.16642e+02       1.29662e+01      -2.04616e-01       2.98207e-04       1.85414e+02
 12.700      2.16309e+02       1.29475e+01       4.30035e-01       2.93986e-04       1.82509e+02
 12.800      2.15977e+02       1.29107e+01       1.07465e+00       2.89822e-04       1.79647e+02
 12.900      2.15646e+02       1.28567e+01       1.72347e+00       2.85712e-04       1.76828e+02
 13.000      2.15319e+02       1.27864e+01       2.37076e+00       2.81652e-04       1.74051e+02
 13.100      2.14999e+02       1.27007e+01       3.01077e+00       2.77639e-04       1.71316e+02
 13.200      2.14688e+02       1.26005e+01       3.63775e+00       2.73670e-04       1.68623e+02
 13.300      2.14388e+02       1.24866e+01       4.24597e+00       2.69743e-04       1.65971e+02
 13.400      2.14101e+02       1.23599e+01       4.82967e+00       2.65855e-04       1.63360e+02
 13.500      2.13830e+02       1.22214e+01       5.38312e+00       2.62004e-04       1.60789e+02
 13.600      2.13576e+02       1.20718e+01       5.90056e+00       2.58186e-04       1.58259e+02
 13.700      2.13343e+02       1.19122e+01       6.37625e+00       2.54400e-04       1.55768e+02
 13.800      2.13133e+02       1.17432e+01       6.80445e+00       2.50644e-04       1.53317e+02
 13.900      2.12947e+02       1.15660e+01       7.17941e+00       2.46916e-04       1.50904e+02
 14.000      2.12788e+02       1.13812e+01       7.49575e+00       2.43213e-04       1.48531e+02
 14.100      2.12655e+02       1.11894e+01       7.75310e+00       2.39538e-04       1.46195e+02
 14.200      2.12547e+02       1.09909e+01       7.95470e+00       2.35891e-04       1.43896e+02
 14.300      2.12462e+02       1.07860e+01       8.10391e+00       2.32275e-04       1.41633e+02
 14.400      2.12397e+02       1.05749e+01       8.20407e+00       2.28693e-04       1.39407e+02
 14.500      2.12351e+02       1.03580e+01       8.25853e+00       2.25147e-04       1.37215e+02
 14.600      2.12322e+02       1.01354e+01       8.27063e+00       2.21638e-04       1.35058e+02
 14.700      2.12307e+02       9.90744e+00       8.24372e+00       2.18169e-04       1.32935e+02
 14.800      2.12305e+02       9.67443e+00       8.18115e+00       2.14740e-04       1.30845e+02
 14.900      2.12313e+02       9.43663e+00       8.08626e+00       2.11355e-04       1.28787e+02
 15.000      2.12331e+02       9.19430e+00       7.96240e+00       2.08013e-04       1.26761e+02
 15.100      2.12355e+02       8.94771e+00       7.81290e+00       2.04716e-04       1.24766e+02
 15.200      2.12383e+02       8.69713e+00       7.64113e+00       2.01467e-04       1.22802e+02
 15.300      2.12414e+02       8.44284e+00       7.45041e+00       1.98265e-04       1.20868e+02
 15.400      2.12446e+02       8.18512e+00       7.24411e+00       1.95111e-04       1.18963e+02
 15.500      2.12477e+02       7.92422e+00       7.02556e+00       1.92008e-04       1.17088e+02
 15.600      2.12504e+02       7.66042e+00       6.79810e+00       1.88955e-04       1.15241e+02
 15.700      2.12526e+02       7.39401e+00       6.56510e+00       1.85953e-04       1.13422e+02
 15.800      2.12541e+02       7.12523e+00       6.32988e+00       1.83003e-04       1.11631e+02
 15.900      2.12547e+02       6.85438e+00       6.09580e+00       1.80106e-04       1.09866e+02
 16.000      2.12541e+02       6.58172e+00       5.86620e+00       1.77261e-04       1.08128e+02
 16.100      2.12522e+02       6.30753e+00       5.64443e+00       1.74470e-04       1.06416e+02
 16.200      2.12488e+02       6.03207e+00       5.43383e+00       1.71733e-04       1.04730e+02
 16.300      2.12437e+02       5.75562e+00       5.23775e+00       1.69050e-04       1.03068e+02
 16.400      2.12366e+02       5.47845e+00       5.05953e+00       1.66421e-04       1.01432e+02
 16.500      2.12274e+02       5.20083e+00       4.90252e+00       1.63846e-04       9.98193e+01
 16.600      2.12160e+02       4.92313e+00       4.76894e+00       1.61325e-04       9.82308e+01
 16.700      2.12026e+02       4.64605e+00       4.65779e+00       1.58855e-04       9.66659e+01
 16.800      2.11875e+02       4.37030e+00       4.56752e+00       1.56434e-04       9.51245e+01
 16.900      2.11710e+02       4.09662e+00       4.49656e+00       1.54057e-04       9.36063e+01
 17.000      2.11534e+02       3.82572e+00       4.44333e+00       1.51723e-04       9.21111e+01
 17.100      2.11349e+02       3.55835e+00       4.40629e+00       1.49428e-04       9.06387e+01
 17.200      2.11158e+02       3.29523e+00       4.38385e+00       1.47170e-04       8.91888e+01
 17.300      2.10965e+02       3.03710e+00       4.37447e+00       1.44948e-04       8.77613e+01
 17.400      2.10771e+02       2.78467e+00       4.37657e+00       1.42757e-04       8.63559e+01
 17.500      2.10580e+02       2.53868e+00       4.38859e+00       1.40597e-04       8.49723e+01
 17.600      2.10395e+02       2.29987e+00       4.40896e+00       1.38466e-04       8.36104e+01
 17.700      2.10219e+02       2.06895e+00       4.43612e+00       1.36360e-04       8.22699e+01
 17.800      2.10053e+02       1.84666e+00       4.46851e+00       1.34279e-04       8.09507e+01
 17.900      2.09902e+02       1.63373e+00       4.50456e+00       1.32221e-04       7.96523e+01
 18.000      2.09768e+02       1.43088e+00       4.54270e+00       1.30183e-04       7.83746e+01
 18.100      2.09654e+02       1.23885e+00       4.58138e+00       1.28165e-04       7.71174e+01
 18.200      2.09562e+02       1.05836e+00       4.61902e+00       1.26164e-04       7.58804e+01
 18.300      2.09495e+02       8.90156e-01       4.65406e+00       1.24180e-04       7.46634e+01
 18.400      2.09457e+02       7.34950e-01       4.68494e+00       1.22211e-04       7.34662e+01
 18.500      2.09450e+02       5.93477e-01       4.71009e+00       1.20256e-04       7.22885e+01
 18.600      2.09477e+02       4.66467e-01       4.72795e+00       1.18314e-04       7.11300e+01
 18.700      2.09541e+02       3.54649e-01       4.73695e+00       1.16383e-04       6.99906e+01
 18.800      2.09643e+02       2.58473e-01       4.73591e+00       1.14464e-04       6.88700e+01
 18.900      2.09782e+02       1.77282e-01       4.72513e+00       1.12557e-04       6.77679e+01
 19.000      2.09955e+02       1.10157e-01       4.70527e+00       1.10666e-04       6.66842e+01
 19.100      2.10159e+02       5.61787e-02       4.67700e+00       1.08792e-04       6.56186e+01
 19.200      2.10390e+02       1.44249e-02       4.64096e+00       1.06937e-04       6.45708e+01
 19.300      2.10647e+02      -1.60237e-02       4.59783e+00       1.05103e-04       6.35407e+01
 19.400      2.10926e+02      -3.60894e-02       4.54826e+00       1.03291e-04       6.25280e+01
 19.500      2.11225e+02      -4.66920e-02       4.49292e+00       1.01502e-04       6.15324e+01
 19.600      2.11540e+02      -4.87522e-02       4.43247e+00       9.97394e-05       6.05538e+01
 19.700      2.11869e+02      -4.31907e-02       4.36758e+00       9.80028e-05       5.95920e+01
 19.800      2.12208e+02      -3.09285e-02       4.29889e+00       9.62938e-05       5.86466e+01
 19.900      2.12556e+02      -1.28857e-02       4.22707e+00       9.46134e-05       5.77175e+01
 20.000      2.12908e+02       1.00167e-02       4.15279e+00       9.29625e-05       5.68045e+01
 20.100      2.13263e+02       3.68581e-02       4.07671e+00       9.13421e-05       5.59072e+01
 20.200      2.13617e+02       6.67177e-02       3.99948e+00       8.97527e-05       5.50256e+01
 20.300      2.13967e+02       9.86744e-02       3.92177e+00       8.81952e-05       5.41593e+01
