# Data Source: NASA MERRA (version 2)
# Model Time = 2011-11-28 18:00:00
# Location = [  39.1026,  -84.5123 ]
# Fields = [ Z(km), T(K), U(m/s), V(m/s), R(g/cm3), P(mbar) ]
# Ground Height = 0.165
  0.000      2.82951e+02      -6.05593e+00      -4.28644e+00       1.24573e-03       1.01162e+03
  0.100      2.82342e+02      -5.89316e+00      -4.45828e+00       1.23344e-03       9.99484e+02
  0.200      2.81731e+02      -5.76868e+00      -4.63116e+00       1.22129e-03       9.87495e+02
  0.300      2.81079e+02      -6.57843e+00      -4.82928e+00       1.20943e-03       9.75638e+02
  0.400      2.80410e+02      -8.88527e+00      -4.96279e+00       1.19773e-03       9.63905e+02
  0.500      2.80059e+02      -1.16843e+01      -4.40522e+00       1.18478e-03       9.52291e+02
  0.600      2.80382e+02      -1.36675e+01      -2.51120e+00       1.16914e-03       9.40799e+02
  0.700      2.81210e+02      -1.46849e+01       3.43068e-01       1.15165e-03       9.29460e+02
  0.800      2.82150e+02      -1.50909e+01       3.34972e+00       1.13404e-03       9.18312e+02
  0.900      2.82951e+02      -1.50484e+01       6.05840e+00       1.11733e-03       9.07352e+02
  1.000      2.83471e+02      -1.45725e+01       8.29556e+00       1.10200e-03       8.96547e+02
  1.100      2.83650e+02      -1.37081e+01       9.98950e+00       1.08819e-03       8.85873e+02
  1.200      2.83549e+02      -1.25540e+01       1.12206e+01       1.07562e-03       8.75323e+02
  1.300      2.83238e+02      -1.12133e+01       1.20827e+01       1.06397e-03       8.64891e+02
  1.400      2.82790e+02      -9.78972e+00       1.26700e+01       1.05294e-03       8.54571e+02
  1.500      2.82276e+02      -8.38398e+00       1.30746e+01       1.04225e-03       8.44359e+02
  1.600      2.81731e+02      -7.05077e+00       1.33566e+01       1.03176e-03       8.34250e+02
  1.700      2.81158e+02      -5.80450e+00       1.35485e+01       1.02146e-03       8.24243e+02
  1.800      2.80563e+02      -4.65830e+00       1.36815e+01       1.01133e-03       8.14334e+02
  1.900      2.79947e+02      -3.62525e+00       1.37871e+01       1.00134e-03       8.04524e+02
  2.000      2.79316e+02      -2.71824e+00       1.38957e+01       9.91483e-04       7.94809e+02
  2.100      2.78675e+02      -1.94596e+00       1.40174e+01       9.81734e-04       7.85188e+02
  2.200      2.78034e+02      -1.31327e+00       1.41444e+01       9.72060e-04       7.75662e+02
  2.300      2.77401e+02      -8.24917e-01       1.42679e+01       9.62429e-04       7.66230e+02
  2.400      2.76787e+02      -4.85608e-01       1.43792e+01       9.52810e-04       7.56892e+02
  2.500      2.76200e+02      -2.99931e-01       1.44697e+01       9.43173e-04       7.47648e+02
  2.600      2.75644e+02      -2.55749e-01       1.45366e+01       9.33508e-04       7.38496e+02
  2.700      2.75113e+02      -3.08942e-01       1.45881e+01       9.23838e-04       7.29438e+02
  2.800      2.74600e+02      -4.11782e-01       1.46335e+01       9.14186e-04       7.20472e+02
  2.900      2.74098e+02      -5.16540e-01       1.46822e+01       9.04580e-04       7.11599e+02
  3.000      2.73601e+02      -5.75486e-01       1.47438e+01       8.95041e-04       7.02816e+02
  3.100      2.73100e+02      -5.44039e-01       1.48272e+01       8.85592e-04       6.94126e+02
  3.200      2.72599e+02      -4.12842e-01       1.49384e+01       8.76229e-04       6.85526e+02
  3.300      2.72101e+02      -1.94642e-01       1.50815e+01       8.66937e-04       6.77017e+02
  3.400      2.71612e+02       9.74731e-02       1.52602e+01       8.57699e-04       6.68599e+02
  3.500      2.71138e+02       4.50414e-01       1.54785e+01       8.48498e-04       6.60272e+02
  3.600      2.70683e+02       8.51094e-01       1.57403e+01       8.39321e-04       6.52036e+02
  3.700      2.70253e+02       1.28596e+00       1.60495e+01       8.30155e-04       6.43890e+02
  3.800      2.69846e+02       1.73746e+00       1.64100e+01       8.21005e-04       6.35834e+02
  3.900      2.69458e+02       2.18595e+00       1.68257e+01       8.11886e-04       6.27867e+02
  4.000      2.69084e+02       2.61181e+00       1.73004e+01       8.02812e-04       6.19989e+02
  4.100      2.68721e+02       2.99539e+00       1.78381e+01       7.93797e-04       6.12199e+02
  4.200      2.68363e+02       3.31705e+00       1.84425e+01       7.84854e-04       6.04496e+02
  4.300      2.68006e+02       3.55767e+00       1.91174e+01       7.75995e-04       5.96879e+02
  4.400      2.67646e+02       3.71681e+00       1.98557e+01       7.67237e-04       5.89347e+02
  4.500      2.67273e+02       3.81757e+00       2.06372e+01       7.58597e-04       5.81900e+02
  4.600      2.66881e+02       3.88460e+00       2.14409e+01       7.50096e-04       5.74535e+02
  4.700      2.66463e+02       3.94252e+00       2.22456e+01       7.41749e-04       5.67251e+02
  4.800      2.66010e+02       4.01596e+00       2.30304e+01       7.33576e-04       5.60047e+02
  4.900      2.65515e+02       4.12954e+00       2.37741e+01       7.25591e-04       5.52922e+02
  5.000      2.64972e+02       4.30638e+00       2.44567e+01       7.17810e-04       5.45873e+02
  5.100      2.64382e+02       4.54549e+00       2.50732e+01       7.10223e-04       5.38900e+02
  5.200      2.63754e+02       4.82675e+00       2.56311e+01       7.02801e-04       5.32001e+02
  5.300      2.63096e+02       5.12945e+00       2.61380e+01       6.95518e-04       5.25176e+02
  5.400      2.62419e+02       5.43294e+00       2.66015e+01       6.88345e-04       5.18423e+02
  5.500      2.61731e+02       5.71651e+00       2.70295e+01       6.81259e-04       5.11740e+02
  5.600      2.61041e+02       5.95950e+00       2.74295e+01       6.74233e-04       5.05127e+02
  5.700      2.60359e+02       6.14127e+00       2.78093e+01       6.67242e-04       4.98583e+02
  5.800      2.59689e+02       6.24955e+00       2.81736e+01       6.60274e-04       4.92106e+02
  5.900      2.59030e+02       6.28980e+00       2.85213e+01       6.53331e-04       4.85696e+02
  6.000      2.58379e+02       6.26977e+00       2.88507e+01       6.46420e-04       4.79351e+02
  6.100      2.57733e+02       6.19719e+00       2.91599e+01       6.39549e-04       4.73071e+02
  6.200      2.57091e+02       6.07982e+00       2.94470e+01       6.32722e-04       4.66855e+02
  6.300      2.56448e+02       5.92540e+00       2.97101e+01       6.25947e-04       4.60701e+02
  6.400      2.55803e+02       5.74166e+00       2.99475e+01       6.19229e-04       4.54610e+02
  6.500      2.55153e+02       5.53635e+00       3.01572e+01       6.12573e-04       4.48580e+02
  6.600      2.54494e+02       5.31747e+00       3.03388e+01       6.05986e-04       4.42612e+02
  6.700      2.53827e+02       5.09351e+00       3.04948e+01       5.99473e-04       4.36706e+02
  6.800      2.53148e+02       4.87303e+00       3.06279e+01       5.93042e-04       4.30866e+02
  6.900      2.52457e+02       4.66458e+00       3.07410e+01       5.86697e-04       4.25093e+02
  7.000      2.51752e+02       4.47673e+00       3.08368e+01       5.80444e-04       4.19388e+02
  7.100      2.51032e+02       4.31802e+00       3.09181e+01       5.74289e-04       4.13753e+02
  7.200      2.50294e+02       4.19702e+00       3.09876e+01       5.68237e-04       4.08190e+02
  7.300      2.49538e+02       4.12228e+00       3.10482e+01       5.62292e-04       4.02700e+02
  7.400      2.48762e+02       4.10199e+00       3.11026e+01       5.56460e-04       3.97283e+02
  7.500      2.47967e+02       4.13568e+00       3.11539e+01       5.50731e-04       3.91936e+02
  7.600      2.47154e+02       4.21435e+00       3.12053e+01       5.45088e-04       3.86648e+02
  7.700      2.46327e+02       4.32865e+00       3.12600e+01       5.39509e-04       3.81411e+02
  7.800      2.45487e+02       4.46920e+00       3.13213e+01       5.33979e-04       3.76214e+02
  7.900      2.44638e+02       4.62664e+00       3.13925e+01       5.28477e-04       3.71050e+02
  8.000      2.43782e+02       4.79159e+00       3.14768e+01       5.22988e-04       3.65911e+02
  8.100      2.42921e+02       4.95469e+00       3.15774e+01       5.17494e-04       3.60789e+02
  8.200      2.42059e+02       5.10657e+00       3.16976e+01       5.11980e-04       3.55677e+02
  8.300      2.41196e+02       5.23786e+00       3.18407e+01       5.06431e-04       3.50568e+02
  8.400      2.40336e+02       5.34090e+00       3.20092e+01       5.00838e-04       3.45461e+02
  8.500      2.39482e+02       5.41755e+00       3.22018e+01       4.95223e-04       3.40374e+02
  8.600      2.38638e+02       5.47300e+00       3.24158e+01       4.89618e-04       3.35335e+02
  8.700      2.37805e+02       5.51242e+00       3.26486e+01       4.84053e-04       3.30367e+02
  8.800      2.36989e+02       5.54100e+00       3.28974e+01       4.78558e-04       3.25494e+02
  8.900      2.36190e+02       5.56393e+00       3.31596e+01       4.73159e-04       3.20738e+02
  9.000      2.35414e+02       5.58639e+00       3.34325e+01       4.67882e-04       3.16119e+02
  9.100      2.34662e+02       5.61356e+00       3.37135e+01       4.62754e-04       3.11656e+02
  9.200      2.33939e+02       5.65062e+00       3.39998e+01       4.57797e-04       3.07367e+02
  9.300      2.33247e+02       5.70277e+00       3.42888e+01       4.53034e-04       3.03270e+02
  9.400      2.32590e+02       5.77517e+00       3.45778e+01       4.48487e-04       2.99380e+02
  9.500      2.31969e+02       5.87124e+00       3.48639e+01       4.44164e-04       2.95702e+02
  9.600      2.31382e+02       5.99002e+00       3.51433e+01       4.40041e-04       2.92217e+02
  9.700      2.30829e+02       6.12989e+00       3.54120e+01       4.36093e-04       2.88903e+02
  9.800      2.30307e+02       6.28921e+00       3.56664e+01       4.32292e-04       2.85737e+02
  9.900      2.29814e+02       6.46636e+00       3.59023e+01       4.28615e-04       2.82700e+02
 10.000      2.29348e+02       6.65972e+00       3.61161e+01       4.25038e-04       2.79772e+02
 10.100      2.28908e+02       6.86766e+00       3.63039e+01       4.21537e-04       2.76935e+02
 10.200      2.28490e+02       7.08855e+00       3.64617e+01       4.18091e-04       2.74170e+02
 10.300      2.28094e+02       7.32078e+00       3.65857e+01       4.14677e-04       2.71460e+02
 10.400      2.27718e+02       7.56270e+00       3.66720e+01       4.11276e-04       2.68789e+02
 10.500      2.27359e+02       7.81269e+00       3.67169e+01       4.07867e-04       2.66141e+02
 10.600      2.27015e+02       8.06914e+00       3.67163e+01       4.04430e-04       2.63500e+02
 10.700      2.26685e+02       8.33041e+00       3.66664e+01       4.00948e-04       2.60852e+02
 10.800      2.26367e+02       8.59488e+00       3.65634e+01       3.97402e-04       2.58182e+02
 10.900      2.26059e+02       8.86092e+00       3.64035e+01       3.93775e-04       2.55477e+02
 11.000      2.25758e+02       9.12691e+00       3.61826e+01       3.90051e-04       2.52724e+02
 11.100      2.25464e+02       9.39122e+00       3.58970e+01       3.86214e-04       2.49911e+02
 11.200      2.25173e+02       9.65224e+00       3.55445e+01       3.82252e-04       2.47029e+02
 11.300      2.24884e+02       9.90846e+00       3.51296e+01       3.78171e-04       2.44078e+02
 11.400      2.24594e+02       1.01584e+01       3.46578e+01       3.73977e-04       2.41060e+02
 11.500      2.24302e+02       1.04005e+01       3.41352e+01       3.69678e-04       2.37978e+02
 11.600      2.24004e+02       1.06333e+01       3.35673e+01       3.65280e-04       2.34835e+02
 11.700      2.23699e+02       1.08554e+01       3.29601e+01       3.60790e-04       2.31634e+02
 11.800      2.23385e+02       1.10651e+01       3.23192e+01       3.56217e-04       2.28376e+02
 11.900      2.23059e+02       1.12611e+01       3.16505e+01       3.51566e-04       2.25065e+02
 12.000      2.22719e+02       1.14418e+01       3.09597e+01       3.46844e-04       2.21704e+02
 12.100      2.22363e+02       1.16057e+01       3.02527e+01       3.42059e-04       2.18296e+02
 12.200      2.21988e+02       1.17513e+01       2.95352e+01       3.37218e-04       2.14844e+02
 12.300      2.21593e+02       1.18771e+01       2.88130e+01       3.32326e-04       2.11350e+02
 12.400      2.21174e+02       1.19816e+01       2.80919e+01       3.27391e-04       2.07818e+02
 12.500      2.20731e+02       1.20634e+01       2.73776e+01       3.22419e-04       2.04251e+02
 12.600      2.20260e+02       1.21209e+01       2.66760e+01       3.17416e-04       2.00653e+02
 12.700      2.19760e+02       1.21530e+01       2.59923e+01       3.12389e-04       1.97027e+02
 12.800      2.19233e+02       1.21618e+01       2.53280e+01       3.07349e-04       1.93384e+02
 12.900      2.18684e+02       1.21503e+01       2.46830e+01       3.02310e-04       1.89737e+02
 13.000      2.18117e+02       1.21219e+01       2.40574e+01       2.97284e-04       1.86098e+02
 13.100      2.17536e+02       1.20798e+01       2.34511e+01       2.92281e-04       1.82480e+02
 13.200      2.16945e+02       1.20272e+01       2.28640e+01       2.87314e-04       1.78891e+02
 13.300      2.16349e+02       1.19673e+01       2.22961e+01       2.82391e-04       1.75343e+02
 13.400      2.15752e+02       1.19034e+01       2.17473e+01       2.77522e-04       1.71844e+02
 13.500      2.15158e+02       1.18386e+01       2.12175e+01       2.72716e-04       1.68403e+02
 13.600      2.14571e+02       1.17763e+01       2.07068e+01       2.67980e-04       1.65027e+02
 13.700      2.13996e+02       1.17195e+01       2.02151e+01       2.63322e-04       1.61724e+02
 13.800      2.13437e+02       1.16716e+01       1.97423e+01       2.58749e-04       1.58500e+02
 13.900      2.12897e+02       1.16358e+01       1.92883e+01       2.54266e-04       1.55360e+02
 14.000      2.12382e+02       1.16153e+01       1.88532e+01       2.49878e-04       1.52310e+02
 14.100      2.11896e+02       1.16133e+01       1.84369e+01       2.45592e-04       1.49355e+02
 14.200      2.11441e+02       1.16316e+01       1.80389e+01       2.41409e-04       1.46496e+02
 14.300      2.11015e+02       1.16689e+01       1.76584e+01       2.37327e-04       1.43728e+02
 14.400      2.10619e+02       1.17234e+01       1.72941e+01       2.33340e-04       1.41048e+02
 14.500      2.10250e+02       1.17935e+01       1.69451e+01       2.29446e-04       1.38451e+02
 14.600      2.09906e+02       1.18775e+01       1.66102e+01       2.25641e-04       1.35933e+02
 14.700      2.09587e+02       1.19736e+01       1.62883e+01       2.21923e-04       1.33490e+02
 14.800      2.09291e+02       1.20802e+01       1.59784e+01       2.18288e-04       1.31118e+02
 14.900      2.09016e+02       1.21956e+01       1.56793e+01       2.14733e-04       1.28813e+02
 15.000      2.08762e+02       1.23181e+01       1.53900e+01       2.11256e-04       1.26573e+02
 15.100      2.08526e+02       1.24459e+01       1.51093e+01       2.07853e-04       1.24394e+02
 15.200      2.08308e+02       1.25774e+01       1.48362e+01       2.04522e-04       1.22272e+02
 15.300      2.08105e+02       1.27110e+01       1.45696e+01       2.01262e-04       1.20206e+02
 15.400      2.07917e+02       1.28448e+01       1.43084e+01       1.98068e-04       1.18192e+02
 15.500      2.07742e+02       1.29772e+01       1.40514e+01       1.94940e-04       1.16227e+02
 15.600      2.07578e+02       1.31064e+01       1.37977e+01       1.91875e-04       1.14310e+02
 15.700      2.07425e+02       1.32309e+01       1.35461e+01       1.88871e-04       1.12437e+02
 15.800      2.07280e+02       1.33489e+01       1.32955e+01       1.85926e-04       1.10606e+02
 15.900      2.07143e+02       1.34587e+01       1.30448e+01       1.83037e-04       1.08816e+02
 16.000      2.07011e+02       1.35585e+01       1.27929e+01       1.80204e-04       1.07063e+02
 16.100      2.06884e+02       1.36468e+01       1.25388e+01       1.77424e-04       1.05347e+02
 16.200      2.06759e+02       1.37218e+01       1.22814e+01       1.74696e-04       1.03665e+02
 16.300      2.06637e+02       1.37817e+01       1.20195e+01       1.72018e-04       1.02015e+02
 16.400      2.06514e+02       1.38250e+01       1.17521e+01       1.69388e-04       1.00396e+02
 16.500      2.06391e+02       1.38501e+01       1.14782e+01       1.66805e-04       9.88054e+01
 16.600      2.06266e+02       1.38569e+01       1.11979e+01       1.64267e-04       9.72431e+01
 16.700      2.06141e+02       1.38464e+01       1.09122e+01       1.61771e-04       9.57076e+01
 16.800      2.06016e+02       1.38192e+01       1.06216e+01       1.59316e-04       9.41979e+01
 16.900      2.05893e+02       1.37762e+01       1.03270e+01       1.56898e-04       9.27130e+01
 17.000      2.05771e+02       1.37182e+01       1.00292e+01       1.54517e-04       9.12521e+01
 17.100      2.05652e+02       1.36460e+01       9.72882e+00       1.52171e-04       8.98142e+01
 17.200      2.05536e+02       1.35603e+01       9.42675e+00       1.49857e-04       8.83986e+01
 17.300      2.05424e+02       1.34620e+01       9.12373e+00       1.47574e-04       8.70045e+01
 17.400      2.05317e+02       1.33519e+01       8.82050e+00       1.45320e-04       8.56310e+01
 17.500      2.05215e+02       1.32307e+01       8.51784e+00       1.43094e-04       8.42774e+01
 17.600      2.05120e+02       1.30993e+01       8.21652e+00       1.40894e-04       8.29432e+01
 17.700      2.05031e+02       1.29584e+01       7.91729e+00       1.38719e-04       8.16275e+01
 17.800      2.04950e+02       1.28089e+01       7.62093e+00       1.36567e-04       8.03297e+01
 17.900      2.04878e+02       1.26516e+01       7.32820e+00       1.34438e-04       7.90493e+01
 18.000      2.04815e+02       1.24872e+01       7.03986e+00       1.32329e-04       7.77857e+01
 18.100      2.04762e+02       1.23165e+01       6.75668e+00       1.30241e-04       7.65382e+01
 18.200      2.04719e+02       1.21404e+01       6.47942e+00       1.28172e-04       7.53064e+01
 18.300      2.04687e+02       1.19597e+01       6.20886e+00       1.26121e-04       7.40899e+01
 18.400      2.04668e+02       1.17751e+01       5.94574e+00       1.24086e-04       7.28880e+01
 18.500      2.04662e+02       1.15874e+01       5.69085e+00       1.22068e-04       7.17003e+01
 18.600      2.04669e+02       1.13974e+01       5.44494e+00       1.20066e-04       7.05265e+01
 18.700      2.04690e+02       1.12060e+01       5.20875e+00       1.18078e-04       6.93660e+01
 18.800      2.04725e+02       1.10136e+01       4.98249e+00       1.16106e-04       6.82192e+01
 18.900      2.04774e+02       1.08205e+01       4.76589e+00       1.14150e-04       6.70863e+01
 19.000      2.04836e+02       1.06269e+01       4.55868e+00       1.12213e-04       6.59679e+01
 19.100      2.04910e+02       1.04332e+01       4.36056e+00       1.10296e-04       6.48644e+01
 19.200      2.04996e+02       1.02396e+01       4.17126e+00       1.08401e-04       6.37762e+01
 19.300      2.05092e+02       1.00463e+01       3.99051e+00       1.06527e-04       6.27037e+01
 19.400      2.05199e+02       9.85367e+00       3.81802e+00       1.04678e-04       6.16472e+01
 19.500      2.05316e+02       9.66192e+00       3.65350e+00       1.02853e-04       6.06069e+01
 19.600      2.05441e+02       9.47133e+00       3.49669e+00       1.01054e-04       5.95832e+01
 19.700      2.05575e+02       9.28216e+00       3.34729e+00       9.92820e-05       5.85762e+01
 19.800      2.05716e+02       9.09467e+00       3.20504e+00       9.75371e-05       5.75863e+01
 19.900      2.05864e+02       8.90913e+00       3.06964e+00       9.58204e-05       5.66135e+01
 20.000      2.06018e+02       8.72580e+00       2.94082e+00       9.41326e-05       5.56579e+01
 20.100      2.06178e+02       8.54496e+00       2.81830e+00       9.24743e-05       5.47198e+01
 20.200      2.06343e+02       8.36686e+00       2.70180e+00       9.08458e-05       5.37992e+01
 20.300      2.06512e+02       8.19177e+00       2.59103e+00       8.92479e-05       5.28962e+01
