# Data Source: NASA GEOS5 Near-Real-Time
# Model Time = 2010-02-06 18:00:00
# Location = [  39.7393, -104.9900 ]
# Fields = [ Z(km), T(K), U(m/s), V(m/s), R(g/cm3), P(mbar) ]
# Ground Height = 1.589
  0.000      2.85140e+02       1.01089e+00       9.17302e-01       1.24088e-03       1.01547e+03
  0.100      2.84496e+02       1.01986e+00       9.53333e-01       1.22883e-03       1.00335e+03
  0.200      2.83852e+02       1.02994e+00       9.93403e-01       1.21691e-03       9.91367e+02
  0.300      2.83207e+02       1.03712e+00       1.02299e+00       1.20511e-03       9.79521e+02
  0.400      2.82556e+02       1.03793e+00       1.02880e+00       1.19343e-03       9.67795e+02
  0.500      2.81905e+02       1.03718e+00       1.01474e+00       1.18183e-03       9.56182e+02
  0.600      2.81259e+02       1.04536e+00       9.96951e-01       1.17030e-03       9.44680e+02
  0.700      2.80611e+02       1.06068e+00       9.79258e-01       1.15886e-03       9.33288e+02
  0.800      2.79930e+02       1.06785e+00       9.51654e-01       1.14763e-03       9.22006e+02
  0.900      2.79216e+02       1.06270e+00       9.09189e-01       1.13662e-03       9.10831e+02
  1.000      2.78520e+02       1.06303e+00       8.57628e-01       1.12562e-03       8.99764e+02
  1.100      2.77883e+02       1.08012e+00       7.92507e-01       1.11446e-03       8.88805e+02
  1.200      2.77282e+02       1.09190e+00       6.66634e-01       1.10324e-03       8.77959e+02
  1.300      2.76682e+02       1.06937e+00       4.35631e-01       1.09212e-03       8.67231e+02
  1.400      2.76088e+02       9.92393e-01       1.76503e-01       1.08108e-03       8.56614e+02
  1.500      2.75525e+02       8.46260e-01       3.18133e-02       1.06998e-03       8.46098e+02
  1.600      2.75005e+02       6.44089e-01       8.41463e-02       1.05881e-03       8.35679e+02
  1.700      2.74517e+02       4.37818e-01       3.31254e-01       1.04761e-03       8.25370e+02
  1.800      2.74056e+02       2.73998e-01       7.50141e-01       1.03641e-03       8.15179e+02
  1.900      2.73647e+02       1.62304e-01       1.25348e+00       1.02513e-03       8.05103e+02
  2.000      2.73322e+02       1.01556e-01       1.73760e+00       1.01365e-03       7.95139e+02
  2.100      2.73060e+02       7.65329e-02       2.13670e+00       1.00204e-03       7.85284e+02
  2.200      2.72790e+02       5.75685e-02       2.42395e+00       9.90588e-04       7.75540e+02
  2.300      2.72449e+02       2.32858e-02       2.58078e+00       9.79513e-04       7.65908e+02
  2.400      2.72033e+02      -5.36971e-03       2.61923e+00       9.68813e-04       7.56385e+02
  2.500      2.71557e+02       5.00053e-03       2.56042e+00       9.58425e-04       7.46966e+02
  2.600      2.71030e+02       8.47369e-02       2.42716e+00       9.48307e-04       7.37646e+02
  2.700      2.70452e+02       2.59309e-01       2.24497e+00       9.38450e-04       7.28422e+02
  2.800      2.69824e+02       5.52365e-01       2.03962e+00       9.28842e-04       7.19290e+02
  2.900      2.69163e+02       9.68859e-01       1.83649e+00       9.19420e-04       7.10250e+02
  3.000      2.68500e+02       1.50032e+00       1.66074e+00       9.10078e-04       7.01303e+02
  3.100      2.67863e+02       2.13318e+00       1.53433e+00       9.00731e-04       6.92451e+02
  3.200      2.67249e+02       2.82389e+00       1.45934e+00       8.91379e-04       6.83693e+02
  3.300      2.66649e+02       3.51736e+00       1.43019e+00       8.82059e-04       6.75025e+02
  3.400      2.66051e+02       4.16870e+00       1.43944e+00       8.72805e-04       6.66446e+02
  3.500      2.65447e+02       4.77424e+00       1.47221e+00       8.63647e-04       6.57955e+02
  3.600      2.64828e+02       5.34072e+00       1.51174e+00       8.54615e-04       6.49555e+02
  3.700      2.64186e+02       5.87276e+00       1.54510e+00       8.45730e-04       6.41244e+02
  3.800      2.63518e+02       6.36772e+00       1.57231e+00       8.37001e-04       6.33021e+02
  3.900      2.62821e+02       6.82147e+00       1.59616e+00       8.28432e-04       6.24883e+02
  4.000      2.62095e+02       7.23124e+00       1.61815e+00       8.20014e-04       6.16825e+02
  4.100      2.61358e+02       7.59963e+00       1.63489e+00       8.11691e-04       6.08848e+02
  4.200      2.60632e+02       7.93054e+00       1.64178e+00       8.03396e-04       6.00951e+02
  4.300      2.59933e+02       8.22683e+00       1.63460e+00       7.95078e-04       5.93134e+02
  4.400      2.59250e+02       8.48563e+00       1.61114e+00       7.86775e-04       5.85399e+02
  4.500      2.58563e+02       8.70202e+00       1.56992e+00       7.78553e-04       5.77745e+02
  4.600      2.57850e+02       8.87192e+00       1.50978e+00       7.70472e-04       5.70173e+02
  4.700      2.57112e+02       9.00264e+00       1.43331e+00       7.62532e-04       5.62682e+02
  4.800      2.56361e+02       9.10938e+00       1.34572e+00       7.54694e-04       5.55270e+02
  4.900      2.55607e+02       9.20746e+00       1.25226e+00       7.46918e-04       5.47932e+02
  5.000      2.54857e+02       9.30722e+00       1.15568e+00       7.39183e-04       5.40668e+02
  5.100      2.54109e+02       9.41023e+00       1.05428e+00       7.31500e-04       5.33478e+02
  5.200      2.53359e+02       9.51715e+00       9.45880e-01       7.23880e-04       5.26363e+02
  5.300      2.52603e+02       9.62952e+00       8.29075e-01       7.16334e-04       5.19322e+02
  5.400      2.51840e+02       9.75507e+00       7.07780e-01       7.08866e-04       5.12355e+02
  5.500      2.51069e+02       9.90428e+00       5.88256e-01       7.01475e-04       5.05461e+02
  5.600      2.50289e+02       1.00876e+01       4.76782e-01       6.94161e-04       4.98637e+02
  5.700      2.49501e+02       1.03149e+01       3.81484e-01       6.86922e-04       4.91882e+02
  5.800      2.48708e+02       1.05944e+01       3.14591e-01       6.79747e-04       4.85198e+02
  5.900      2.47914e+02       1.09341e+01       2.88890e-01       6.72630e-04       4.78585e+02
  6.000      2.47122e+02       1.13415e+01       3.16861e-01       6.65561e-04       4.72042e+02
  6.100      2.46335e+02       1.18106e+01       4.02172e-01       6.58535e-04       4.65571e+02
  6.200      2.45552e+02       1.23195e+01       5.38537e-01       6.51549e-04       4.59169e+02
  6.300      2.44775e+02       1.28456e+01       7.19141e-01       6.44603e-04       4.52836e+02
  6.400      2.44003e+02       1.33664e+01       9.37164e-01       6.37695e-04       4.46571e+02
  6.500      2.43233e+02       1.38603e+01       1.18581e+00       6.30834e-04       4.40372e+02
  6.600      2.42459e+02       1.43064e+01       1.45830e+00       6.24036e-04       4.34240e+02
  6.700      2.41674e+02       1.46838e+01       1.74786e+00       6.17316e-04       4.28172e+02
  6.800      2.40871e+02       1.49725e+01       2.04763e+00       6.10689e-04       4.22169e+02
  6.900      2.40050e+02       1.51676e+01       2.34915e+00       6.04157e-04       4.16231e+02
  7.000      2.39215e+02       1.52811e+01       2.64217e+00       5.97708e-04       4.10355e+02
  7.100      2.38370e+02       1.53257e+01       2.91635e+00       5.91330e-04       4.04542e+02
  7.200      2.37520e+02       1.53142e+01       3.16139e+00       5.85011e-04       3.98792e+02
  7.300      2.36667e+02       1.52666e+01       3.37159e+00       5.78744e-04       3.93103e+02
  7.400      2.35809e+02       1.52183e+01       3.55114e+00       5.72533e-04       3.87475e+02
  7.500      2.34946e+02       1.52067e+01       3.70557e+00       5.66381e-04       3.81907e+02
  7.600      2.34074e+02       1.52694e+01       3.84038e+00       5.60293e-04       3.76400e+02
  7.700      2.33192e+02       1.54390e+01       3.96133e+00       5.54272e-04       3.70953e+02
  7.800      2.32300e+02       1.57065e+01       4.07620e+00       5.48318e-04       3.65564e+02
  7.900      2.31399e+02       1.60409e+01       4.19387e+00       5.42427e-04       3.60234e+02
  8.000      2.30490e+02       1.64111e+01       4.32323e+00       5.36594e-04       3.54961e+02
  8.100      2.29575e+02       1.67858e+01       4.47314e+00       5.30818e-04       3.49745e+02
  8.200      2.28654e+02       1.71400e+01       4.64517e+00       5.25093e-04       3.44585e+02
  8.300      2.27733e+02       1.74687e+01       4.81566e+00       5.19407e-04       3.39481e+02
  8.400      2.26817e+02       1.77716e+01       4.95547e+00       5.13749e-04       3.34432e+02
  8.500      2.25911e+02       1.80483e+01       5.03548e+00       5.08106e-04       3.29439e+02
  8.600      2.25022e+02       1.82985e+01       5.02657e+00       5.02469e-04       3.24501e+02
  8.700      2.24156e+02       1.85224e+01       4.91327e+00       4.96820e-04       3.19618e+02
  8.800      2.23327e+02       1.87219e+01       4.72041e+00       4.91136e-04       3.14792e+02
  8.900      2.22548e+02       1.88993e+01       4.48025e+00       4.85387e-04       3.10023e+02
  9.000      2.21835e+02       1.90571e+01       4.22506e+00       4.79547e-04       3.05311e+02
  9.100      2.21200e+02       1.91974e+01       3.98708e+00       4.73591e-04       3.00657e+02
  9.200      2.20656e+02       1.93237e+01       3.79474e+00       4.67502e-04       2.96061e+02
  9.300      2.20192e+02       1.94456e+01       3.65283e+00       4.61309e-04       2.91525e+02
  9.400      2.19792e+02       1.95751e+01       3.55713e+00       4.55053e-04       2.87049e+02
  9.500      2.19437e+02       1.97245e+01       3.50342e+00       4.48777e-04       2.82633e+02
  9.600      2.19111e+02       1.99058e+01       3.48749e+00       4.42519e-04       2.78277e+02
  9.700      2.18796e+02       2.01310e+01       3.50509e+00       4.36319e-04       2.73984e+02
  9.800      2.18483e+02       2.04090e+01       3.55042e+00       4.30194e-04       2.69751e+02
  9.900      2.18181e+02       2.07426e+01       3.61450e+00       4.24127e-04       2.65580e+02
 10.000      2.17901e+02       2.11337e+01       3.68801e+00       4.18098e-04       2.61468e+02
 10.100      2.17652e+02       2.15841e+01       3.76158e+00       4.12087e-04       2.57415e+02
 10.200      2.17446e+02       2.20957e+01       3.82588e+00       4.06077e-04       2.53421e+02
 10.300      2.17293e+02       2.26706e+01       3.87156e+00       4.00051e-04       2.49484e+02
 10.400      2.17202e+02       2.33051e+01       3.89168e+00       3.93994e-04       2.45604e+02
 10.500      2.17180e+02       2.39819e+01       3.88577e+00       3.87903e-04       2.41783e+02
 10.600      2.17234e+02       2.46809e+01       3.85446e+00       3.81773e-04       2.38021e+02
 10.700      2.17370e+02       2.53821e+01       3.79837e+00       3.75603e-04       2.34320e+02
 10.800      2.17593e+02       2.60656e+01       3.71813e+00       3.69391e-04       2.30681e+02
 10.900      2.17910e+02       2.67113e+01       3.61436e+00       3.63134e-04       2.27105e+02
 11.000      2.18327e+02       2.72995e+01       3.48781e+00       3.56834e-04       2.23592e+02
 11.100      2.18835e+02       2.78182e+01       3.34411e+00       3.50513e-04       2.20142e+02
 11.200      2.19408e+02       2.82654e+01       3.19519e+00       3.44219e-04       2.16754e+02
 11.300      2.20015e+02       2.86398e+01       3.05340e+00       3.37998e-04       2.13427e+02
 11.400      2.20630e+02       2.89401e+01       2.93108e+00       3.31895e-04       2.10158e+02
 11.500      2.21223e+02       2.91649e+01       2.84057e+00       3.25948e-04       2.06948e+02
 11.600      2.21766e+02       2.93129e+01       2.79421e+00       3.20193e-04       2.03793e+02
 11.700      2.22230e+02       2.93829e+01       2.80436e+00       3.14665e-04       2.00694e+02
 11.800      2.22591e+02       2.93737e+01       2.88120e+00       3.09387e-04       1.97648e+02
 11.900      2.22847e+02       2.92858e+01       3.01777e+00       3.04350e-04       1.94654e+02
 12.000      2.23012e+02       2.91208e+01       3.19880e+00       2.99524e-04       1.91709e+02
 12.100      2.23098e+02       2.88800e+01       3.40896e+00       2.94884e-04       1.88812e+02
 12.200      2.23116e+02       2.85649e+01       3.63294e+00       2.90406e-04       1.85960e+02
 12.300      2.23080e+02       2.81768e+01       3.85542e+00       2.86066e-04       1.83151e+02
 12.400      2.23002e+02       2.77172e+01       4.06106e+00       2.81843e-04       1.80384e+02
 12.500      2.22893e+02       2.71875e+01       4.23457e+00       2.77716e-04       1.77656e+02
 12.600      2.22767e+02       2.65891e+01       4.36061e+00       2.73666e-04       1.74966e+02
 12.700      2.22634e+02       2.59261e+01       4.42809e+00       2.69678e-04       1.72313e+02
 12.800      2.22494e+02       2.52135e+01       4.44228e+00       2.65749e-04       1.69697e+02
 12.900      2.22350e+02       2.44688e+01       4.41235e+00       2.61880e-04       1.67117e+02
 13.000      2.22200e+02       2.37093e+01       4.34746e+00       2.58069e-04       1.64574e+02
 13.100      2.22044e+02       2.29525e+01       4.25680e+00       2.54318e-04       1.62069e+02
 13.200      2.21883e+02       2.22159e+01       4.14955e+00       2.50627e-04       1.59600e+02
 13.300      2.21717e+02       2.15169e+01       4.03487e+00       2.46994e-04       1.57169e+02
 13.400      2.21545e+02       2.08729e+01       3.92195e+00       2.43422e-04       1.54776e+02
 13.500      2.21367e+02       2.03015e+01       3.81995e+00       2.39908e-04       1.52419e+02
 13.600      2.21184e+02       1.98200e+01       3.73807e+00       2.36454e-04       1.50101e+02
 13.700      2.20996e+02       1.94417e+01       3.68341e+00       2.33058e-04       1.47819e+02
 13.800      2.20803e+02       1.91600e+01       3.65374e+00       2.29717e-04       1.45573e+02
 13.900      2.20605e+02       1.89629e+01       3.64413e+00       2.26429e-04       1.43360e+02
 14.000      2.20404e+02       1.88385e+01       3.64968e+00       2.23189e-04       1.41180e+02
 14.100      2.20198e+02       1.87746e+01       3.66548e+00       2.19996e-04       1.39031e+02
 14.200      2.19990e+02       1.87592e+01       3.68660e+00       2.16845e-04       1.36910e+02
 14.300      2.19780e+02       1.87803e+01       3.70813e+00       2.13734e-04       1.34816e+02
 14.400      2.19568e+02       1.88258e+01       3.72516e+00       2.10660e-04       1.32749e+02
 14.500      2.19354e+02       1.88837e+01       3.73277e+00       2.07620e-04       1.30707e+02
 14.600      2.19139e+02       1.89420e+01       3.72605e+00       2.04613e-04       1.28687e+02
 14.700      2.18924e+02       1.89887e+01       3.70009e+00       2.01636e-04       1.26691e+02
 14.800      2.18709e+02       1.90116e+01       3.64997e+00       1.98687e-04       1.24715e+02
 14.900      2.18495e+02       1.90023e+01       3.57275e+00       1.95764e-04       1.22760e+02
 15.000      2.18282e+02       1.89614e+01       3.47060e+00       1.92870e-04       1.20827e+02
 15.100      2.18070e+02       1.88910e+01       3.34650e+00       1.90006e-04       1.18918e+02
 15.200      2.17861e+02       1.87931e+01       3.20346e+00       1.87175e-04       1.17033e+02
 15.300      2.17654e+02       1.86698e+01       3.04447e+00       1.84378e-04       1.15175e+02
 15.400      2.17450e+02       1.85233e+01       2.87253e+00       1.81617e-04       1.13344e+02
 15.500      2.17250e+02       1.83556e+01       2.69062e+00       1.78894e-04       1.11542e+02
 15.600      2.17053e+02       1.81688e+01       2.50175e+00       1.76210e-04       1.09769e+02
 15.700      2.16861e+02       1.79650e+01       2.30891e+00       1.73566e-04       1.08026e+02
 15.800      2.16674e+02       1.77462e+01       2.11508e+00       1.70964e-04       1.06315e+02
 15.900      2.16492e+02       1.75146e+01       1.92328e+00       1.68405e-04       1.04635e+02
 16.000      2.16317e+02       1.72722e+01       1.73648e+00       1.65889e-04       1.02989e+02
 16.100      2.16147e+02       1.70211e+01       1.55769e+00       1.63419e-04       1.01375e+02
 16.200      2.15984e+02       1.67635e+01       1.38990e+00       1.60993e-04       9.97958e+01
 16.300      2.15829e+02       1.65009e+01       1.23523e+00       1.58614e-04       9.82500e+01
 16.400      2.15680e+02       1.62335e+01       1.09347e+00       1.56278e-04       9.67367e+01
 16.500      2.15539e+02       1.59614e+01       9.63986e-01       1.53984e-04       9.52541e+01
 16.600      2.15404e+02       1.56846e+01       8.46166e-01       1.51729e-04       9.38007e+01
 16.700      2.15277e+02       1.54033e+01       7.39389e-01       1.49512e-04       9.23751e+01
 16.800      2.15156e+02       1.51173e+01       6.43036e-01       1.47330e-04       9.09760e+01
 16.900      2.15042e+02       1.48268e+01       5.56483e-01       1.45182e-04       8.96018e+01
 17.000      2.14934e+02       1.45317e+01       4.79114e-01       1.43066e-04       8.82515e+01
 17.100      2.14833e+02       1.42322e+01       4.10307e-01       1.40979e-04       8.69237e+01
 17.200      2.14738e+02       1.39282e+01       3.49442e-01       1.38922e-04       8.56173e+01
 17.300      2.14649e+02       1.36198e+01       2.95902e-01       1.36892e-04       8.43312e+01
 17.400      2.14567e+02       1.33070e+01       2.49063e-01       1.34887e-04       8.30643e+01
 17.500      2.14491e+02       1.29899e+01       2.08307e-01       1.32906e-04       8.18156e+01
 17.600      2.14420e+02       1.26685e+01       1.73014e-01       1.30949e-04       8.05842e+01
 17.700      2.14356e+02       1.23428e+01       1.42564e-01       1.29013e-04       7.93691e+01
 17.800      2.14297e+02       1.20129e+01       1.16338e-01       1.27098e-04       7.81695e+01
 17.900      2.14244e+02       1.16788e+01       9.37135e-02       1.25202e-04       7.69845e+01
 18.000      2.14197e+02       1.13406e+01       7.40724e-02       1.23325e-04       7.58134e+01
 18.100      2.14155e+02       1.09982e+01       5.67946e-02       1.21465e-04       7.46554e+01
 18.200      2.14119e+02       1.06517e+01       4.12598e-02       1.19621e-04       7.35098e+01
 18.300      2.14088e+02       1.03012e+01       2.68485e-02       1.17793e-04       7.23760e+01
 18.400      2.14062e+02       9.94670e+00       1.29402e-02       1.15980e-04       7.12533e+01
 18.500      2.14042e+02       9.58820e+00      -1.08480e-03       1.14181e-04       7.01411e+01
 18.600      2.14026e+02       9.22582e+00      -1.57699e-02       1.12395e-04       6.90389e+01
 18.700      2.14015e+02       8.86001e+00      -3.12081e-02       1.10623e-04       6.79473e+01
 18.800      2.14009e+02       8.49134e+00      -4.73279e-02       1.08867e-04       6.68668e+01
 18.900      2.14006e+02       8.12038e+00      -6.40582e-02       1.07128e-04       6.57980e+01
 19.000      2.14008e+02       7.74771e+00      -8.13273e-02       1.05407e-04       6.47414e+01
 19.100      2.14012e+02       7.37389e+00      -9.90638e-02       1.03706e-04       6.36976e+01
 19.200      2.14020e+02       6.99951e+00      -1.17196e-01       1.02024e-04       6.26670e+01
 19.300      2.14030e+02       6.62514e+00      -1.35652e-01       1.00364e-04       6.16501e+01
 19.400      2.14043e+02       6.25134e+00      -1.54362e-01       9.87254e-05       6.06473e+01
 19.500      2.14058e+02       5.87869e+00      -1.73253e-01       9.71098e-05       5.96590e+01
 19.600      2.14074e+02       5.50777e+00      -1.92253e-01       9.55178e-05       5.86854e+01
 19.700      2.14091e+02       5.13915e+00      -2.11292e-01       9.39502e-05       5.77270e+01
 19.800      2.14110e+02       4.77341e+00      -2.30297e-01       9.24074e-05       5.67839e+01
 19.900      2.14129e+02       4.41110e+00      -2.49199e-01       9.08899e-05       5.58564e+01
 20.000      2.14148e+02       4.05281e+00      -2.67924e-01       8.93984e-05       5.49447e+01
 20.100      2.14167e+02       3.69912e+00      -2.86401e-01       8.79332e-05       5.40491e+01
 20.200      2.14186e+02       3.35059e+00      -3.04559e-01       8.64949e-05       5.31696e+01
 20.300      2.14204e+02       3.00780e+00      -3.22326e-01       8.50836e-05       5.23065e+01
