# Data Source: NASA MERRA (version 1)
# Model Time = 2010-03-19 18:00:00
# Location = [  39.7393, -104.9900 ]
# Fields = [ Z(km), T(K), U(m/s), V(m/s), R(g/cm3), P(mbar) ]
# Ground Height = 1.589
  0.000      2.80903e+02      -4.15015e+00      -1.58505e+00       1.26940e-03       1.02338e+03
  0.100      2.80256e+02      -4.16540e+00      -1.59945e+00       1.25689e-03       1.01096e+03
  0.200      2.79598e+02      -4.18746e+00      -1.61545e+00       1.24457e-03       9.98703e+02
  0.300      2.78942e+02      -4.20870e+00      -1.63125e+00       1.23238e-03       9.86596e+02
  0.400      2.78298e+02      -4.22153e+00      -1.64508e+00       1.22022e-03       9.74612e+02
  0.500      2.77674e+02      -4.22199e+00      -1.65388e+00       1.20806e-03       9.62735e+02
  0.600      2.77058e+02      -4.21946e+00      -1.65005e+00       1.19596e-03       9.50973e+02
  0.700      2.76437e+02      -4.22703e+00      -1.63647e+00       1.18398e-03       9.39337e+02
  0.800      2.75800e+02      -4.26158e+00      -1.67537e+00       1.17216e-03       9.27821e+02
  0.900      2.75141e+02      -4.33523e+00      -1.83030e+00       1.16053e-03       9.16418e+02
  1.000      2.74476e+02      -4.40900e+00      -2.01271e+00       1.14901e-03       9.05126e+02
  1.100      2.73832e+02      -4.42090e+00      -2.06312e+00       1.13748e-03       8.93944e+02
  1.200      2.73212e+02      -4.36741e+00      -1.94849e+00       1.12594e-03       8.82873e+02
  1.300      2.72597e+02      -4.29744e+00      -1.74928e+00       1.11447e-03       8.71913e+02
  1.400      2.71968e+02      -4.26172e+00      -1.55000e+00       1.10315e-03       8.61064e+02
  1.500      2.71304e+02      -4.31103e+00      -1.43513e+00       1.09206e-03       8.50326e+02
  1.600      2.70593e+02      -4.48141e+00      -1.46759e+00       1.08125e-03       8.39699e+02
  1.700      2.69844e+02      -4.74454e+00      -1.61576e+00       1.07067e-03       8.29181e+02
  1.800      2.69074e+02      -5.05441e+00      -1.82209e+00       1.06025e-03       8.18769e+02
  1.900      2.68300e+02      -5.36506e+00      -2.02907e+00       1.04992e-03       8.08460e+02
  2.000      2.67538e+02      -5.63053e+00      -2.17925e+00       1.03961e-03       7.98251e+02
  2.100      2.66800e+02      -5.81780e+00      -2.24615e+00       1.02929e-03       7.88141e+02
  2.200      2.66083e+02      -5.92500e+00      -2.27803e+00       1.01895e-03       7.78130e+02
  2.300      2.65383e+02      -5.95487e+00      -2.33417e+00       1.00862e-03       7.68217e+02
  2.400      2.64696e+02      -5.91017e+00      -2.47386e+00       9.98325e-04       7.58405e+02
  2.500      2.64017e+02      -5.79366e+00      -2.75635e+00       9.88072e-04       7.48692e+02
  2.600      2.63343e+02      -5.61204e+00      -3.20748e+00       9.77883e-04       7.39079e+02
  2.700      2.62668e+02      -5.38270e+00      -3.76355e+00       9.67775e-04       7.29564e+02
  2.800      2.61987e+02      -5.12476e+00      -4.34600e+00       9.57766e-04       7.20147e+02
  2.900      2.61296e+02      -4.85737e+00      -4.87629e+00       9.47871e-04       7.10828e+02
  3.000      2.60590e+02      -4.59965e+00      -5.27584e+00       9.38106e-04       7.01604e+02
  3.100      2.59866e+02      -4.37064e+00      -5.47917e+00       9.28483e-04       6.92475e+02
  3.200      2.59124e+02      -4.18877e+00      -5.50994e+00       9.18991e-04       6.83441e+02
  3.300      2.58371e+02      -4.07220e+00      -5.42904e+00       9.09612e-04       6.74500e+02
  3.400      2.57612e+02      -4.03908e+00      -5.29747e+00       9.00325e-04       6.65652e+02
  3.500      2.56851e+02      -4.10757e+00      -5.17627e+00       8.91113e-04       6.56895e+02
  3.600      2.56094e+02      -4.29570e+00      -5.12623e+00       8.81958e-04       6.48229e+02
  3.700      2.55345e+02      -4.59704e+00      -5.16439e+00       8.72841e-04       6.39653e+02
  3.800      2.54611e+02      -4.95130e+00      -5.21166e+00       8.63744e-04       6.31166e+02
  3.900      2.53896e+02      -5.29104e+00      -5.17612e+00       8.54651e-04       6.22767e+02
  4.000      2.53205e+02      -5.54883e+00      -4.96586e+00       8.45543e-04       6.14455e+02
  4.100      2.52544e+02      -5.65723e+00      -4.48898e+00       8.36405e-04       6.06228e+02
  4.200      2.51919e+02      -5.54900e+00      -3.65400e+00       8.27221e-04       5.98087e+02
  4.300      2.51335e+02      -5.18464e+00      -2.43077e+00       8.17973e-04       5.90030e+02
  4.400      2.50803e+02      -4.58064e+00      -9.12942e-01       8.08640e-04       5.82063e+02
  4.500      2.50331e+02      -3.76024e+00       7.90933e-01       7.99204e-04       5.74188e+02
  4.600      2.49929e+02      -2.74669e+00       2.57231e+00       7.89646e-04       5.66409e+02
  4.700      2.49606e+02      -1.56321e+00       4.32264e+00       7.79947e-04       5.58729e+02
  4.800      2.49371e+02      -2.33037e-01       5.93338e+00       7.70091e-04       5.51151e+02
  4.900      2.49231e+02       1.21757e+00       7.30990e+00       7.60075e-04       5.43677e+02
  5.000      2.49165e+02       2.74326e+00       8.44642e+00       7.49970e-04       5.36306e+02
  5.100      2.49141e+02       4.29118e+00       9.37200e+00       7.39871e-04       5.29034e+02
  5.200      2.49130e+02       5.80843e+00       1.01158e+01       7.29870e-04       5.21859e+02
  5.300      2.49100e+02       7.24214e+00       1.07069e+01       7.20051e-04       5.14777e+02
  5.400      2.49021e+02       8.53942e+00       1.11745e+01       7.10498e-04       5.07786e+02
  5.500      2.48863e+02       9.64738e+00       1.15478e+01       7.01286e-04       5.00884e+02
  5.600      2.48598e+02       1.05233e+01       1.18547e+01       6.92477e-04       4.94067e+02
  5.700      2.48232e+02       1.11844e+01       1.21164e+01       6.84048e-04       4.87333e+02
  5.800      2.47777e+02       1.16697e+01       1.23519e+01       6.75948e-04       4.80681e+02
  5.900      2.47248e+02       1.20185e+01       1.25798e+01       6.68130e-04       4.74107e+02
  6.000      2.46659e+02       1.22699e+01       1.28189e+01       6.60548e-04       4.67610e+02
  6.100      2.46024e+02       1.24632e+01       1.30880e+01       6.53157e-04       4.61187e+02
  6.200      2.45358e+02       1.26374e+01       1.34059e+01       6.45915e-04       4.54838e+02
  6.300      2.44673e+02       1.28316e+01       1.37913e+01       6.38781e-04       4.48559e+02
  6.400      2.43980e+02       1.30703e+01       1.42522e+01       6.31729e-04       4.42350e+02
  6.500      2.43279e+02       1.33472e+01       1.47744e+01       6.24754e-04       4.36209e+02
  6.600      2.42568e+02       1.36528e+01       1.53412e+01       6.17859e-04       4.30136e+02
  6.700      2.41849e+02       1.39774e+01       1.59358e+01       6.11044e-04       4.24129e+02
  6.800      2.41119e+02       1.43112e+01       1.65415e+01       6.04309e-04       4.18189e+02
  6.900      2.40377e+02       1.46445e+01       1.71414e+01       5.97656e-04       4.12313e+02
  7.000      2.39624e+02       1.49676e+01       1.77188e+01       5.91084e-04       4.06501e+02
  7.100      2.38858e+02       1.52709e+01       1.82568e+01       5.84595e-04       4.00753e+02
  7.200      2.38078e+02       1.55457e+01       1.87412e+01       5.78189e-04       3.95068e+02
  7.300      2.37285e+02       1.57907e+01       1.91712e+01       5.71865e-04       3.89445e+02
  7.400      2.36478e+02       1.60072e+01       1.95515e+01       5.65623e-04       3.83883e+02
  7.500      2.35656e+02       1.61962e+01       1.98868e+01       5.59461e-04       3.78382e+02
  7.600      2.34821e+02       1.63590e+01       2.01816e+01       5.53379e-04       3.72942e+02
  7.700      2.33971e+02       1.64968e+01       2.04406e+01       5.47377e-04       3.67561e+02
  7.800      2.33106e+02       1.66108e+01       2.06683e+01       5.41453e-04       3.62240e+02
  7.900      2.32227e+02       1.67023e+01       2.08693e+01       5.35606e-04       3.56977e+02
  8.000      2.31333e+02       1.67724e+01       2.10483e+01       5.29836e-04       3.51773e+02
  8.100      2.30425e+02       1.68228e+01       2.12098e+01       5.24143e-04       3.46626e+02
  8.200      2.29505e+02       1.68606e+01       2.13570e+01       5.18517e-04       3.41536e+02
  8.300      2.28577e+02       1.68963e+01       2.14922e+01       5.12948e-04       3.36501e+02
  8.400      2.27646e+02       1.69409e+01       2.16177e+01       5.07424e-04       3.31522e+02
  8.500      2.26716e+02       1.70049e+01       2.17358e+01       5.01934e-04       3.26596e+02
  8.600      2.25792e+02       1.70991e+01       2.18490e+01       4.96468e-04       3.21722e+02
  8.700      2.24878e+02       1.72341e+01       2.19594e+01       4.91015e-04       3.16901e+02
  8.800      2.23979e+02       1.74209e+01       2.20694e+01       4.85565e-04       3.12131e+02
  8.900      2.23098e+02       1.76699e+01       2.21814e+01       4.80109e-04       3.07410e+02
  9.000      2.22242e+02       1.79920e+01       2.22976e+01       4.74637e-04       3.02739e+02
  9.100      2.21413e+02       1.83976e+01       2.24202e+01       4.69140e-04       2.98117e+02
  9.200      2.20618e+02       1.88852e+01       2.25446e+01       4.63609e-04       2.93544e+02
  9.300      2.19864e+02       1.94382e+01       2.26574e+01       4.58032e-04       2.89023e+02
  9.400      2.19161e+02       2.00393e+01       2.27450e+01       4.52402e-04       2.84557e+02
  9.500      2.18515e+02       2.06709e+01       2.27935e+01       4.46707e-04       2.80147e+02
  9.600      2.17935e+02       2.13155e+01       2.27890e+01       4.40940e-04       2.75796e+02
  9.700      2.17429e+02       2.19557e+01       2.27178e+01       4.35091e-04       2.71506e+02
  9.800      2.17004e+02       2.25739e+01       2.25661e+01       4.29155e-04       2.67278e+02
  9.900      2.16669e+02       2.31528e+01       2.23201e+01       4.23123e-04       2.63115e+02
 10.000      2.16433e+02       2.36747e+01       2.19659e+01       4.16990e-04       2.59018e+02
 10.100      2.16301e+02       2.41222e+01       2.14898e+01       4.10751e-04       2.54988e+02
 10.200      2.16284e+02       2.44778e+01       2.08780e+01       4.04403e-04       2.51027e+02
 10.300      2.16387e+02       2.47259e+01       2.01189e+01       3.97943e-04       2.47135e+02
 10.400      2.16602e+02       2.48677e+01       1.92223e+01       3.91397e-04       2.43312e+02
 10.500      2.16915e+02       2.49135e+01       1.82091e+01       3.84798e-04       2.39555e+02
 10.600      2.17310e+02       2.48733e+01       1.71001e+01       3.78179e-04       2.35862e+02
 10.700      2.17771e+02       2.47576e+01       1.59166e+01       3.71570e-04       2.32233e+02
 10.800      2.18284e+02       2.45766e+01       1.46794e+01       3.65002e-04       2.28664e+02
 10.900      2.18832e+02       2.43406e+01       1.34096e+01       3.58500e-04       2.25155e+02
 11.000      2.19402e+02       2.40597e+01       1.21281e+01       3.52088e-04       2.21704e+02
 11.100      2.19977e+02       2.37444e+01       1.08561e+01       3.45791e-04       2.18309e+02
 11.200      2.20541e+02       2.34048e+01       9.61451e+00       3.39628e-04       2.14969e+02
 11.300      2.21081e+02       2.30513e+01       8.42431e+00       3.33618e-04       2.11682e+02
 11.400      2.21580e+02       2.26940e+01       7.30654e+00       3.27780e-04       2.08446e+02
 11.500      2.22023e+02       2.23433e+01       6.28220e+00       3.22127e-04       2.05262e+02
 11.600      2.22395e+02       2.20094e+01       5.37230e+00       3.16676e-04       2.02126e+02
 11.700      2.22681e+02       2.17026e+01       4.59770e+00       3.11438e-04       1.99038e+02
 11.800      2.22873e+02       2.14284e+01       3.96754e+00       3.06415e-04       1.95997e+02
 11.900      2.22978e+02       2.11851e+01       3.47193e+00       3.01590e-04       1.93002e+02
 12.000      2.23003e+02       2.09703e+01       3.09918e+00       2.96947e-04       1.90052e+02
 12.100      2.22957e+02       2.07814e+01       2.83759e+00       2.92469e-04       1.87147e+02
 12.200      2.22845e+02       2.06160e+01       2.67550e+00       2.88142e-04       1.84285e+02
 12.300      2.22676e+02       2.04716e+01       2.60121e+00       2.83951e-04       1.81467e+02
 12.400      2.22458e+02       2.03458e+01       2.60305e+00       2.79882e-04       1.78692e+02
 12.500      2.22197e+02       2.02360e+01       2.66932e+00       2.75924e-04       1.75958e+02
 12.600      2.21901e+02       2.01399e+01       2.78835e+00       2.72064e-04       1.73266e+02
 12.700      2.21578e+02       2.00549e+01       2.94845e+00       2.68291e-04       1.70614e+02
 12.800      2.21235e+02       1.99786e+01       3.13793e+00       2.64593e-04       1.68002e+02
 12.900      2.20880e+02       1.99085e+01       3.34513e+00       2.60960e-04       1.65430e+02
 13.000      2.20520e+02       1.98421e+01       3.55834e+00       2.57383e-04       1.62896e+02
 13.100      2.20163e+02       1.97770e+01       3.76589e+00       2.53851e-04       1.60401e+02
 13.200      2.19816e+02       1.97107e+01       3.95610e+00       2.50356e-04       1.57943e+02
 13.300      2.19486e+02       1.96407e+01       4.11728e+00       2.46889e-04       1.55522e+02
 13.400      2.19182e+02       1.95646e+01       4.23774e+00       2.43441e-04       1.53137e+02
 13.500      2.18910e+02       1.94798e+01       4.30581e+00       2.40005e-04       1.50788e+02
 13.600      2.18678e+02       1.93842e+01       4.31059e+00       2.36574e-04       1.48475e+02
 13.700      2.18486e+02       1.92771e+01       4.25059e+00       2.33148e-04       1.46197e+02
 13.800      2.18333e+02       1.91595e+01       4.13048e+00       2.29730e-04       1.43952e+02
 13.900      2.18215e+02       1.90321e+01       3.95503e+00       2.26325e-04       1.41742e+02
 14.000      2.18130e+02       1.88957e+01       3.72901e+00       2.22935e-04       1.39565e+02
 14.100      2.18075e+02       1.87512e+01       3.45720e+00       2.19566e-04       1.37421e+02
 14.200      2.18047e+02       1.85993e+01       3.14438e+00       2.16219e-04       1.35309e+02
 14.300      2.18043e+02       1.84408e+01       2.79531e+00       2.12898e-04       1.33228e+02
 14.400      2.18062e+02       1.82766e+01       2.41477e+00       2.09607e-04       1.31180e+02
 14.500      2.18099e+02       1.81074e+01       2.00753e+00       2.06347e-04       1.29162e+02
 14.600      2.18154e+02       1.79341e+01       1.57836e+00       2.03122e-04       1.27175e+02
 14.700      2.18222e+02       1.77574e+01       1.13206e+00       1.99934e-04       1.25218e+02
 14.800      2.18301e+02       1.75783e+01       6.73371e-01       1.96784e-04       1.23290e+02
 14.900      2.18388e+02       1.73973e+01       2.07087e-01       1.93677e-04       1.21391e+02
 15.000      2.18481e+02       1.72155e+01      -2.62028e-01       1.90613e-04       1.19522e+02
 15.100      2.18577e+02       1.70336e+01      -7.29198e-01       1.87594e-04       1.17680e+02
 15.200      2.18673e+02       1.68523e+01      -1.18964e+00       1.84621e-04       1.15867e+02
 15.300      2.18767e+02       1.66725e+01      -1.63860e+00       1.81698e-04       1.14081e+02
 15.400      2.18855e+02       1.64950e+01      -2.07128e+00       1.78824e-04       1.12322e+02
 15.500      2.18936e+02       1.63206e+01      -2.48293e+00       1.76002e-04       1.10590e+02
 15.600      2.19006e+02       1.61502e+01      -2.86876e+00       1.73231e-04       1.08884e+02
 15.700      2.19063e+02       1.59844e+01      -3.22400e+00       1.70514e-04       1.07204e+02
 15.800      2.19103e+02       1.58242e+01      -3.54388e+00       1.67851e-04       1.05549e+02
 15.900      2.19125e+02       1.56702e+01      -3.82362e+00       1.65244e-04       1.03920e+02
 16.000      2.19126e+02       1.55235e+01      -4.05846e+00       1.62692e-04       1.02315e+02
 16.100      2.19102e+02       1.53846e+01      -4.24361e+00       1.60196e-04       1.00735e+02
 16.200      2.19052e+02       1.52544e+01      -4.37453e+00       1.57758e-04       9.91793e+01
 16.300      2.18975e+02       1.51325e+01      -4.45125e+00       1.55375e-04       9.76469e+01
 16.400      2.18872e+02       1.50176e+01      -4.47806e+00       1.53045e-04       9.61376e+01
 16.500      2.18746e+02       1.49081e+01      -4.45938e+00       1.50766e-04       9.46511e+01
 16.600      2.18598e+02       1.48027e+01      -4.39967e+00       1.48534e-04       9.31870e+01
 16.700      2.18430e+02       1.47000e+01      -4.30334e+00       1.46348e-04       9.17449e+01
 16.800      2.18244e+02       1.45984e+01      -4.17486e+00       1.44205e-04       9.03243e+01
 16.900      2.18042e+02       1.44965e+01      -4.01864e+00       1.42103e-04       8.89248e+01
 17.000      2.17824e+02       1.43930e+01      -3.83914e+00       1.40039e-04       8.75461e+01
 17.100      2.17594e+02       1.42864e+01      -3.64077e+00       1.38012e-04       8.61879e+01
 17.200      2.17353e+02       1.41752e+01      -3.42800e+00       1.36019e-04       8.48496e+01
 17.300      2.17103e+02       1.40580e+01      -3.20525e+00       1.34060e-04       8.35310e+01
 17.400      2.16846e+02       1.39334e+01      -2.97695e+00       1.32132e-04       8.22318e+01
 17.500      2.16582e+02       1.38000e+01      -2.74756e+00       1.30233e-04       8.09515e+01
 17.600      2.16315e+02       1.36562e+01      -2.52150e+00       1.28361e-04       7.96899e+01
 17.700      2.16046e+02       1.35008e+01      -2.30321e+00       1.26516e-04       7.84467e+01
 17.800      2.15777e+02       1.33322e+01      -2.09714e+00       1.24696e-04       7.72215e+01
 17.900      2.15509e+02       1.31489e+01      -1.90771e+00       1.22899e-04       7.60140e+01
 18.000      2.15244e+02       1.29497e+01      -1.73937e+00       1.21123e-04       7.48239e+01
 18.100      2.14984e+02       1.27330e+01      -1.59656e+00       1.19368e-04       7.36509e+01
 18.200      2.14732e+02       1.24974e+01      -1.48371e+00       1.17633e-04       7.24948e+01
 18.300      2.14488e+02       1.22415e+01      -1.40526e+00       1.15915e-04       7.13552e+01
 18.400      2.14254e+02       1.19639e+01      -1.36564e+00       1.14215e-04       7.02319e+01
 18.500      2.14033e+02       1.16633e+01      -1.36864e+00       1.12530e-04       6.91246e+01
 18.600      2.13824e+02       1.13406e+01      -1.41295e+00       1.10862e-04       6.80333e+01
 18.700      2.13628e+02       1.09977e+01      -1.49498e+00       1.09210e-04       6.69579e+01
 18.800      2.13443e+02       1.06364e+01      -1.61109e+00       1.07575e-04       6.58983e+01
 18.900      2.13271e+02       1.02585e+01      -1.75767e+00       1.05956e-04       6.48545e+01
 19.000      2.13110e+02       9.86570e+00      -1.93109e+00       1.04355e-04       6.38264e+01
 19.100      2.12961e+02       9.45995e+00      -2.12773e+00       1.02772e-04       6.28140e+01
 19.200      2.12824e+02       9.04301e+00      -2.34397e+00       1.01206e-04       6.18172e+01
 19.300      2.12697e+02       8.61671e+00      -2.57618e+00       9.96591e-05       6.08360e+01
 19.400      2.12582e+02       8.18284e+00      -2.82075e+00       9.81300e-05       5.98701e+01
 19.500      2.12477e+02       7.74323e+00      -3.07406e+00       9.66195e-05       5.89196e+01
 19.600      2.12384e+02       7.29969e+00      -3.33247e+00       9.51277e-05       5.79843e+01
 19.700      2.12301e+02       6.85402e+00      -3.59237e+00       9.36548e-05       5.70641e+01
 19.800      2.12228e+02       6.40806e+00      -3.85013e+00       9.22009e-05       5.61590e+01
 19.900      2.12165e+02       5.96359e+00      -4.10214e+00       9.07661e-05       5.52687e+01
 20.000      2.12112e+02       5.52245e+00      -4.34477e+00       8.93505e-05       5.43932e+01
 20.100      2.12069e+02       5.08643e+00      -4.57440e+00       8.79543e-05       5.35324e+01
 20.200      2.12036e+02       4.65735e+00      -4.78740e+00       8.65774e-05       5.26861e+01
 20.300      2.12012e+02       4.23704e+00      -4.98016e+00       8.52200e-05       5.18542e+01
