# Data Source: NASA MERRA (version 2)
# Model Time = 2011-04-06 18:00:00
# Location = [  39.1026,  -84.5123 ]
# Fields = [ Z(km), T(K), U(m/s), V(m/s), R(g/cm3), P(mbar) ]
# Ground Height = 0.165
  0.000      2.92502e+02       7.46298e+00       7.94921e+00       1.20449e-03       1.01115e+03
  0.100      2.91862e+02       7.65716e+00       8.12705e+00       1.19307e-03       9.99366e+02
  0.200      2.91216e+02       7.86499e+00       8.32110e+00       1.18178e-03       9.87723e+02
  0.300      2.90457e+02       8.33887e+00       8.83099e+00       1.17106e-03       9.76207e+02
  0.400      2.89509e+02       9.23917e+00       9.84509e+00       1.16117e-03       9.64809e+02
  0.500      2.88469e+02       1.02205e+01       1.09401e+01       1.15172e-03       9.53512e+02
  0.600      2.87482e+02       1.08081e+01       1.15419e+01       1.14208e-03       9.42300e+02
  0.700      2.86575e+02       1.09957e+01       1.17049e+01       1.13217e-03       9.31177e+02
  0.800      2.85704e+02       1.10600e+01       1.18595e+01       1.12219e-03       9.20158e+02
  0.900      2.84832e+02       1.11804e+01       1.22082e+01       1.11227e-03       9.09245e+02
  1.000      2.83938e+02       1.14184e+01       1.26801e+01       1.10249e-03       8.98423e+02
  1.100      2.83018e+02       1.18183e+01       1.31843e+01       1.09285e-03       8.87684e+02
  1.200      2.82118e+02       1.23979e+01       1.36162e+01       1.08319e-03       8.77035e+02
  1.300      2.81290e+02       1.31708e+01       1.38695e+01       1.07331e-03       8.66484e+02
  1.400      2.80589e+02       1.41504e+01       1.38377e+01       1.06302e-03       8.56039e+02
  1.500      2.80066e+02       1.53486e+01       1.34172e+01       1.05215e-03       8.45707e+02
  1.600      2.79717e+02       1.67166e+01       1.26074e+01       1.04074e-03       8.35491e+02
  1.700      2.79467e+02       1.81307e+01       1.15355e+01       1.02907e-03       8.25386e+02
  1.800      2.79239e+02       1.94622e+01       1.03369e+01       1.01744e-03       8.15388e+02
  1.900      2.78953e+02       2.05826e+01       9.14683e+00       1.00612e-03       8.05492e+02
  2.000      2.78535e+02       2.13665e+01       8.09793e+00       9.95371e-04       7.95695e+02
  2.100      2.77968e+02       2.17896e+01       7.23944e+00       9.85243e-04       7.85995e+02
  2.200      2.77306e+02       2.19452e+01       6.52333e+00       9.75528e-04       7.76393e+02
  2.300      2.76609e+02       2.19332e+01       5.89603e+00       9.66014e-04       7.66889e+02
  2.400      2.75936e+02       2.18539e+01       5.30401e+00       9.56496e-04       7.57484e+02
  2.500      2.75345e+02       2.18069e+01       4.69381e+00       9.46775e-04       7.48179e+02
  2.600      2.74865e+02       2.18582e+01       4.03495e+00       9.36759e-04       7.38974e+02
  2.700      2.74459e+02       2.19969e+01       3.34867e+00       9.26586e-04       7.29868e+02
  2.800      2.74079e+02       2.22016e+01       2.66329e+00       9.16417e-04       7.20859e+02
  2.900      2.73679e+02       2.24510e+01       2.00713e+00       9.06408e-04       7.11946e+02
  3.000      2.73212e+02       2.27236e+01       1.40851e+00       8.96710e-04       7.03127e+02
  3.100      2.72635e+02       2.30002e+01       8.93270e-01       8.87456e-04       6.94401e+02
  3.200      2.71949e+02       2.32891e+01       4.55879e-01       8.78632e-04       6.85766e+02
  3.300      2.71185e+02       2.36171e+01       6.92346e-02       8.70123e-04       6.77219e+02
  3.400      2.70378e+02       2.40117e+01      -2.94190e-01       8.61818e-04       6.68758e+02
  3.500      2.69559e+02       2.45002e+01      -6.61921e-01       8.53607e-04       6.60380e+02
  3.600      2.68761e+02       2.51099e+01      -1.06148e+00       8.45386e-04       6.52083e+02
  3.700      2.68014e+02       2.58639e+01      -1.51719e+00       8.37059e-04       6.43866e+02
  3.800      2.67325e+02       2.67484e+01      -2.02509e+00       8.28610e-04       6.35729e+02
  3.900      2.66688e+02       2.77303e+01      -2.56659e+00       8.20063e-04       6.27672e+02
  4.000      2.66098e+02       2.87764e+01      -3.12295e+00       8.11441e-04       6.19698e+02
  4.100      2.65549e+02       2.98533e+01      -3.67546e+00       8.02765e-04       6.11807e+02
  4.200      2.65035e+02       3.09279e+01      -4.20539e+00       7.94058e-04       6.04000e+02
  4.300      2.64551e+02       3.19673e+01      -4.69474e+00       7.85342e-04       5.96279e+02
  4.400      2.64091e+02       3.29485e+01      -5.14324e+00       7.76635e-04       5.88643e+02
  4.500      2.63651e+02       3.38589e+01      -5.56924e+00       7.67954e-04       5.81093e+02
  4.600      2.63225e+02       3.46862e+01      -5.99193e+00       7.59317e-04       5.73629e+02
  4.700      2.62808e+02       3.54183e+01      -6.43049e+00       7.50738e-04       5.66250e+02
  4.800      2.62395e+02       3.60428e+01      -6.90414e+00       7.42234e-04       5.58956e+02
  4.900      2.61981e+02       3.65477e+01      -7.43204e+00       7.33818e-04       5.51747e+02
  5.000      2.61561e+02       3.69231e+01      -8.03034e+00       7.25506e-04       5.44622e+02
  5.100      2.61128e+02       3.71798e+01      -8.68885e+00       7.17313e-04       5.37580e+02
  5.200      2.60674e+02       3.73388e+01      -9.38410e+00       7.09255e-04       5.30619e+02
  5.300      2.60193e+02       3.74213e+01      -1.00925e+01       7.01349e-04       5.23734e+02
  5.400      2.59676e+02       3.74484e+01      -1.07905e+01       6.93610e-04       5.16926e+02
  5.500      2.59116e+02       3.74415e+01      -1.14544e+01       6.86053e-04       5.10191e+02
  5.600      2.58506e+02       3.74216e+01      -1.20608e+01       6.78690e-04       5.03528e+02
  5.700      2.57838e+02       3.74094e+01      -1.25865e+01       6.71537e-04       4.96934e+02
  5.800      2.57115e+02       3.74133e+01      -1.30240e+01       6.64582e-04       4.90408e+02
  5.900      2.56348e+02       3.74279e+01      -1.33822e+01       6.57790e-04       4.83948e+02
  6.000      2.55549e+02       3.74472e+01      -1.36713e+01       6.51126e-04       4.77554e+02
  6.100      2.54732e+02       3.74652e+01      -1.39011e+01       6.44557e-04       4.71222e+02
  6.200      2.53907e+02       3.74758e+01      -1.40816e+01       6.38048e-04       4.64954e+02
  6.300      2.53087e+02       3.74731e+01      -1.42227e+01       6.31568e-04       4.58746e+02
  6.400      2.52285e+02       3.74511e+01      -1.43345e+01       6.25085e-04       4.52598e+02
  6.500      2.51512e+02       3.74040e+01      -1.44264e+01       6.18570e-04       4.46509e+02
  6.600      2.50771e+02       3.73310e+01      -1.45017e+01       6.12022e-04       4.40481e+02
  6.700      2.50057e+02       3.72352e+01      -1.45585e+01       6.05459e-04       4.34516e+02
  6.800      2.49363e+02       3.71200e+01      -1.45944e+01       5.98901e-04       4.28617e+02
  6.900      2.48685e+02       3.69887e+01      -1.46075e+01       5.92366e-04       4.22786e+02
  7.000      2.48017e+02       3.68445e+01      -1.45955e+01       5.85872e-04       4.17028e+02
  7.100      2.47353e+02       3.66908e+01      -1.45563e+01       5.79435e-04       4.11343e+02
  7.200      2.46689e+02       3.65308e+01      -1.44878e+01       5.73074e-04       4.05734e+02
  7.300      2.46018e+02       3.63678e+01      -1.43877e+01       5.66803e-04       4.00204e+02
  7.400      2.45337e+02       3.62054e+01      -1.42552e+01       5.60633e-04       3.94751e+02
  7.500      2.44643e+02       3.60474e+01      -1.40949e+01       5.54557e-04       3.89369e+02
  7.600      2.43937e+02       3.58984e+01      -1.39131e+01       5.48558e-04       3.84045e+02
  7.700      2.43218e+02       3.57625e+01      -1.37160e+01       5.42624e-04       3.78771e+02
  7.800      2.42485e+02       3.56440e+01      -1.35099e+01       5.36742e-04       3.73536e+02
  7.900      2.41739e+02       3.55473e+01      -1.33010e+01       5.30900e-04       3.68334e+02
  8.000      2.40979e+02       3.54765e+01      -1.30956e+01       5.25084e-04       3.63153e+02
  8.100      2.40205e+02       3.54360e+01      -1.28999e+01       5.19285e-04       3.57988e+02
  8.200      2.39415e+02       3.54301e+01      -1.27200e+01       5.13490e-04       3.52831e+02
  8.300      2.38611e+02       3.54628e+01      -1.25622e+01       5.07692e-04       3.47675e+02
  8.400      2.37794e+02       3.55345e+01      -1.24272e+01       5.01898e-04       3.42529e+02
  8.500      2.36967e+02       3.56409e+01      -1.23096e+01       4.96139e-04       3.37421e+02
  8.600      2.36134e+02       3.57774e+01      -1.22040e+01       4.90444e-04       3.32377e+02
  8.700      2.35300e+02       3.59395e+01      -1.21047e+01       4.84842e-04       3.27419e+02
  8.800      2.34468e+02       3.61229e+01      -1.20062e+01       4.79359e-04       3.22572e+02
  8.900      2.33643e+02       3.63228e+01      -1.19028e+01       4.74021e-04       3.17857e+02
  9.000      2.32827e+02       3.65349e+01      -1.17891e+01       4.68851e-04       3.13293e+02
  9.100      2.32026e+02       3.67547e+01      -1.16595e+01       4.63873e-04       3.08900e+02
  9.200      2.31243e+02       3.69776e+01      -1.15083e+01       4.59107e-04       3.04695e+02
  9.300      2.30483e+02       3.71992e+01      -1.13299e+01       4.54576e-04       3.00695e+02
  9.400      2.29747e+02       3.74152e+01      -1.11197e+01       4.50294e-04       2.96913e+02
  9.500      2.29038e+02       3.76238e+01      -1.08786e+01       4.46243e-04       2.93334e+02
  9.600      2.28354e+02       3.78237e+01      -1.06100e+01       4.42392e-04       2.89933e+02
  9.700      2.27693e+02       3.80141e+01      -1.03174e+01       4.38710e-04       2.86688e+02
  9.800      2.27055e+02       3.81938e+01      -1.00040e+01       4.35169e-04       2.83577e+02
  9.900      2.26439e+02       3.83619e+01      -9.67333e+00       4.31739e-04       2.80579e+02
 10.000      2.25844e+02       3.85172e+01      -9.32881e+00       4.28395e-04       2.77673e+02
 10.100      2.25268e+02       3.86587e+01      -8.97382e+00       4.25110e-04       2.74841e+02
 10.200      2.24710e+02       3.87855e+01      -8.61177e+00       4.21857e-04       2.72063e+02
 10.300      2.24170e+02       3.88964e+01      -8.24607e+00       4.18614e-04       2.69322e+02
 10.400      2.23646e+02       3.89904e+01      -7.88011e+00       4.15355e-04       2.66601e+02
 10.500      2.23137e+02       3.90665e+01      -7.51732e+00       4.12057e-04       2.63883e+02
 10.600      2.22643e+02       3.91236e+01      -7.16109e+00       4.08699e-04       2.61153e+02
 10.700      2.22162e+02       3.91607e+01      -6.81483e+00       4.05259e-04       2.58395e+02
 10.800      2.21693e+02       3.91767e+01      -6.48195e+00       4.01716e-04       2.55595e+02
 10.900      2.21235e+02       3.91707e+01      -6.16586e+00       3.98050e-04       2.52739e+02
 11.000      2.20787e+02       3.91415e+01      -5.86995e+00       3.94242e-04       2.49815e+02
 11.100      2.20348e+02       3.90883e+01      -5.59633e+00       3.90279e-04       2.46812e+02
 11.200      2.19920e+02       3.90108e+01      -5.34278e+00       3.86162e-04       2.43734e+02
 11.300      2.19502e+02       3.89087e+01      -5.10617e+00       3.81895e-04       2.40583e+02
 11.400      2.19097e+02       3.87819e+01      -4.88339e+00       3.77482e-04       2.37364e+02
 11.500      2.18705e+02       3.86301e+01      -4.67131e+00       3.72928e-04       2.34081e+02
 11.600      2.18327e+02       3.84531e+01      -4.46681e+00       3.68237e-04       2.30737e+02
 11.700      2.17965e+02       3.82508e+01      -4.26677e+00       3.63414e-04       2.27337e+02
 11.800      2.17619e+02       3.80228e+01      -4.06806e+00       3.58465e-04       2.23885e+02
 11.900      2.17290e+02       3.77691e+01      -3.86757e+00       3.53395e-04       2.20385e+02
 12.000      2.16980e+02       3.74893e+01      -3.66218e+00       3.48209e-04       2.16841e+02
 12.100      2.16690e+02       3.71833e+01      -3.44875e+00       3.42912e-04       2.13257e+02
 12.200      2.16420e+02       3.68508e+01      -3.22418e+00       3.37512e-04       2.09637e+02
 12.300      2.16172e+02       3.64917e+01      -2.98533e+00       3.32013e-04       2.05985e+02
 12.400      2.15946e+02       3.61058e+01      -2.72910e+00       3.26423e-04       2.02305e+02
 12.500      2.15744e+02       3.56927e+01      -2.45240e+00       3.20746e-04       1.98602e+02
 12.600      2.15566e+02       3.52536e+01      -2.15492e+00       3.15000e-04       1.94882e+02
 12.700      2.15408e+02       3.47906e+01      -1.84008e+00       3.09208e-04       1.91159e+02
 12.800      2.15270e+02       3.43061e+01      -1.51156e+00       3.03398e-04       1.87447e+02
 12.900      2.15148e+02       3.38028e+01      -1.17308e+00       2.97593e-04       1.83756e+02
 13.000      2.15041e+02       3.32830e+01      -8.28324e-01       2.91816e-04       1.80099e+02
 13.100      2.14945e+02       3.27491e+01      -4.80999e-01       2.86087e-04       1.76485e+02
 13.200      2.14860e+02       3.22036e+01      -1.34806e-01       2.80426e-04       1.72924e+02
 13.300      2.14781e+02       3.16490e+01       2.06563e-01       2.74850e-04       1.69424e+02
 13.400      2.14708e+02       3.10876e+01       5.39403e-01       2.69377e-04       1.65993e+02
 13.500      2.14637e+02       3.05220e+01       8.60021e-01       2.64021e-04       1.62640e+02
 13.600      2.14567e+02       2.99546e+01       1.16471e+00       2.58797e-04       1.59369e+02
 13.700      2.14495e+02       2.93878e+01       1.44978e+00       2.53716e-04       1.56188e+02
 13.800      2.14419e+02       2.88241e+01       1.71153e+00       2.48791e-04       1.53102e+02
 13.900      2.14337e+02       2.82659e+01       1.94626e+00       2.44031e-04       1.50115e+02
 14.000      2.14246e+02       2.77154e+01       2.15103e+00       2.39443e-04       1.47230e+02
 14.100      2.14147e+02       2.71732e+01       2.32633e+00       2.35021e-04       1.44444e+02
 14.200      2.14041e+02       2.66397e+01       2.47362e+00       2.30755e-04       1.41752e+02
 14.300      2.13927e+02       2.61152e+01       2.59435e+00       2.26636e-04       1.39148e+02
 14.400      2.13808e+02       2.55999e+01       2.68999e+00       2.22656e-04       1.36628e+02
 14.500      2.13683e+02       2.50941e+01       2.76197e+00       2.18807e-04       1.34187e+02
 14.600      2.13553e+02       2.45982e+01       2.81176e+00       2.15080e-04       1.31822e+02
 14.700      2.13419e+02       2.41125e+01       2.84082e+00       2.11470e-04       1.29528e+02
 14.800      2.13281e+02       2.36372e+01       2.85059e+00       2.07968e-04       1.27301e+02
 14.900      2.13141e+02       2.31727e+01       2.84254e+00       2.04569e-04       1.25138e+02
 15.000      2.12999e+02       2.27192e+01       2.81811e+00       2.01265e-04       1.23035e+02
 15.100      2.12855e+02       2.22770e+01       2.77877e+00       1.98052e-04       1.20989e+02
 15.200      2.12710e+02       2.18465e+01       2.72596e+00       1.94924e-04       1.18997e+02
 15.300      2.12565e+02       2.14280e+01       2.66115e+00       1.91875e-04       1.17056e+02
 15.400      2.12421e+02       2.10217e+01       2.58578e+00       1.88901e-04       1.15163e+02
 15.500      2.12278e+02       2.06280e+01       2.50131e+00       1.85996e-04       1.13316e+02
 15.600      2.12137e+02       2.02471e+01       2.40920e+00       1.83156e-04       1.11512e+02
 15.700      2.11999e+02       1.98794e+01       2.31090e+00       1.80377e-04       1.09748e+02
 15.800      2.11864e+02       1.95251e+01       2.20787e+00       1.77654e-04       1.08022e+02
 15.900      2.11732e+02       1.91845e+01       2.10156e+00       1.74983e-04       1.06332e+02
 16.000      2.11606e+02       1.88580e+01       1.99342e+00       1.72361e-04       1.04677e+02
 16.100      2.11485e+02       1.85458e+01       1.88492e+00       1.69785e-04       1.03053e+02
 16.200      2.11369e+02       1.82483e+01       1.77750e+00       1.67250e-04       1.01458e+02
 16.300      2.11260e+02       1.79658e+01       1.67262e+00       1.64753e-04       9.98926e+01
 16.400      2.11159e+02       1.76982e+01       1.57139e+00       1.62292e-04       9.83533e+01
 16.500      2.11064e+02       1.74448e+01       1.47379e+00       1.59866e-04       9.68396e+01
 16.600      2.10977e+02       1.72046e+01       1.37958e+00       1.57473e-04       9.53505e+01
 16.700      2.10897e+02       1.69766e+01       1.28851e+00       1.55112e-04       9.38853e+01
 16.800      2.10824e+02       1.67599e+01       1.20033e+00       1.52782e-04       9.24431e+01
 16.900      2.10758e+02       1.65534e+01       1.11481e+00       1.50482e-04       9.10233e+01
 17.000      2.10699e+02       1.63563e+01       1.03168e+00       1.48212e-04       8.96249e+01
 17.100      2.10648e+02       1.61674e+01       9.50707e-01       1.45970e-04       8.82474e+01
 17.200      2.10603e+02       1.59860e+01       8.71645e-01       1.43755e-04       8.68899e+01
 17.300      2.10565e+02       1.58109e+01       7.94250e-01       1.41567e-04       8.55520e+01
 17.400      2.10533e+02       1.56411e+01       7.18271e-01       1.39405e-04       8.42330e+01
 17.500      2.10509e+02       1.54758e+01       6.43464e-01       1.37268e-04       8.29321e+01
 17.600      2.10491e+02       1.53140e+01       5.69583e-01       1.35156e-04       8.16490e+01
 17.700      2.10480e+02       1.51546e+01       4.96382e-01       1.33067e-04       8.03829e+01
 17.800      2.10476e+02       1.49967e+01       4.23617e-01       1.31001e-04       7.91335e+01
 17.900      2.10479e+02       1.48393e+01       3.51038e-01       1.28958e-04       7.79001e+01
 18.000      2.10488e+02       1.46815e+01       2.78402e-01       1.26937e-04       7.66824e+01
 18.100      2.10503e+02       1.45222e+01       2.05461e-01       1.24937e-04       7.54797e+01
 18.200      2.10525e+02       1.43605e+01       1.31971e-01       1.22957e-04       7.42918e+01
 18.300      2.10554e+02       1.41954e+01       5.76867e-02       1.20998e-04       7.31181e+01
 18.400      2.10589e+02       1.40259e+01      -1.76411e-02       1.19059e-04       7.19583e+01
 18.500      2.10631e+02       1.38511e+01      -9.42567e-02       1.17139e-04       7.08120e+01
 18.600      2.10679e+02       1.36700e+01      -1.72403e-01       1.15239e-04       6.96787e+01
 18.700      2.10733e+02       1.34820e+01      -2.52055e-01       1.13357e-04       6.85586e+01
 18.800      2.10793e+02       1.32874e+01      -3.32710e-01       1.11495e-04       6.74518e+01
 18.900      2.10858e+02       1.30865e+01      -4.13823e-01       1.09655e-04       6.63588e+01
 19.000      2.10928e+02       1.28796e+01      -4.94845e-01       1.07836e-04       6.52800e+01
 19.100      2.11002e+02       1.26670e+01      -5.75227e-01       1.06041e-04       6.42156e+01
 19.200      2.11080e+02       1.24490e+01      -6.54421e-01       1.04269e-04       6.31660e+01
 19.300      2.11161e+02       1.22260e+01      -7.31876e-01       1.02522e-04       6.21315e+01
 19.400      2.11245e+02       1.19983e+01      -8.07048e-01       1.00800e-04       6.11123e+01
 19.500      2.11332e+02       1.17660e+01      -8.79386e-01       9.91035e-05       6.01085e+01
 19.600      2.11420e+02       1.15297e+01      -9.48342e-01       9.74336e-05       5.91205e+01
 19.700      2.11510e+02       1.12895e+01      -1.01337e+00       9.57906e-05       5.81483e+01
 19.800      2.11601e+02       1.10459e+01      -1.07391e+00       9.41749e-05       5.71921e+01
 19.900      2.11693e+02       1.07990e+01      -1.12943e+00       9.25869e-05       5.62520e+01
 20.000      2.11784e+02       1.05493e+01      -1.17938e+00       9.10270e-05       5.53281e+01
 20.100      2.11875e+02       1.02970e+01      -1.22320e+00       8.94953e-05       5.44206e+01
 20.200      2.11966e+02       1.00424e+01      -1.26034e+00       8.79924e-05       5.35294e+01
 20.300      2.12054e+02       9.78587e+00      -1.29027e+00       8.65182e-05       5.26546e+01
