# Data Source: NASA GEOS5 Near-Real-Time
# Model Time = 2010-08-14 18:00:00
# Location = [  39.7393, -104.9900 ]
# Fields = [ Z(km), T(K), U(m/s), V(m/s), R(g/cm3), P(mbar) ]
# Ground Height = 1.589
  0.000      3.07940e+02       1.93161e+00      -1.27540e+00       1.14739e-03       1.01405e+03
  0.100      3.07334e+02       1.89724e+00      -1.27862e+00       1.13622e-03       1.00220e+03
  0.200      3.06731e+02       1.86269e+00      -1.28124e+00       1.12515e-03       9.90491e+02
  0.300      3.06119e+02       1.82895e+00      -1.28647e+00       1.11424e-03       9.78927e+02
  0.400      3.05486e+02       1.79702e+00      -1.29683e+00       1.10353e-03       9.67518e+02
  0.500      3.04844e+02       1.76794e+00      -1.30624e+00       1.09299e-03       9.56257e+02
  0.600      3.04217e+02       1.74276e+00      -1.30338e+00       1.08250e-03       9.45130e+02
  0.700      3.03601e+02       1.72305e+00      -1.29116e+00       1.07207e-03       9.34133e+02
  0.800      3.02965e+02       1.71093e+00      -1.28923e+00       1.06183e-03       9.23272e+02
  0.900      3.02289e+02       1.70816e+00      -1.30868e+00       1.05185e-03       9.12553e+02
  1.000      3.01594e+02       1.71543e+00      -1.33695e+00       1.04205e-03       9.01969e+02
  1.100      3.00904e+02       1.73259e+00      -1.35937e+00       1.03233e-03       8.91516e+02
  1.200      3.00236e+02       1.75449e+00      -1.37240e+00       1.02264e-03       8.81189e+02
  1.300      2.99601e+02       1.77382e+00      -1.37775e+00       1.01295e-03       8.70987e+02
  1.400      2.98979e+02       1.78165e+00      -1.39599e+00       1.00331e-03       8.60910e+02
  1.500      2.98311e+02       1.76697e+00      -1.47245e+00       9.93932e-04       8.50958e+02
  1.600      2.97549e+02       1.72191e+00      -1.63918e+00       9.84972e-04       8.41132e+02
  1.700      2.96702e+02       1.65622e+00      -1.84790e+00       9.76378e-04       8.31419e+02
  1.800      2.95801e+02       1.58555e+00      -2.02395e+00       9.68028e-04       8.21806e+02
  1.900      2.94873e+02       1.52654e+00      -2.11962e+00       9.59824e-04       8.12285e+02
  2.000      2.93937e+02       1.49736e+00      -2.12889e+00       9.51701e-04       8.02855e+02
  2.100      2.93018e+02       1.51830e+00      -2.04963e+00       9.43584e-04       7.93517e+02
  2.200      2.92181e+02       1.63015e+00      -1.88267e+00       9.35261e-04       7.84271e+02
  2.300      2.91518e+02       1.88599e+00      -1.63062e+00       9.26446e-04       7.75118e+02
  2.400      2.91089e+02       2.31388e+00      -1.30578e+00       9.16970e-04       7.66059e+02
  2.500      2.90805e+02       2.83711e+00      -9.60602e-01       9.07131e-04       7.57100e+02
  2.600      2.90542e+02       3.35193e+00      -6.57861e-01       8.97335e-04       7.48247e+02
  2.700      2.90211e+02       3.79653e+00      -4.36477e-01       8.87857e-04       7.39503e+02
  2.800      2.89806e+02       4.20291e+00      -2.81967e-01       8.78708e-04       7.30859e+02
  2.900      2.89328e+02       4.61535e+00      -1.72730e-01       8.69861e-04       7.22308e+02
  3.000      2.88776e+02       5.04702e+00      -9.64847e-02       8.61310e-04       7.13844e+02
  3.100      2.88141e+02       5.46052e+00      -5.60824e-02       8.53072e-04       7.05460e+02
  3.200      2.87412e+02       5.81442e+00      -5.56720e-02       8.45165e-04       6.97154e+02
  3.300      2.86594e+02       6.09918e+00      -9.44957e-02       8.37569e-04       6.88922e+02
  3.400      2.85714e+02       6.35342e+00      -1.64398e-01       8.30202e-04       6.80765e+02
  3.500      2.84799e+02       6.61951e+00      -2.56640e-01       8.22980e-04       6.72682e+02
  3.600      2.83873e+02       6.91845e+00      -3.65192e-01       8.15834e-04       6.64673e+02
  3.700      2.82952e+02       7.23394e+00      -4.88769e-01       8.08716e-04       6.56735e+02
  3.800      2.82048e+02       7.54584e+00      -6.26563e-01       8.01587e-04       6.48867e+02
  3.900      2.81169e+02       7.83684e+00      -7.77449e-01       7.94426e-04       6.41066e+02
  4.000      2.80302e+02       8.09681e+00      -9.39474e-01       7.87272e-04       6.33333e+02
  4.100      2.79430e+02       8.31682e+00      -1.11055e+00       7.80172e-04       6.25670e+02
  4.200      2.78541e+02       8.48995e+00      -1.28877e+00       7.73167e-04       6.18079e+02
  4.300      2.77631e+02       8.61991e+00      -1.47316e+00       7.66262e-04       6.10558e+02
  4.400      2.76700e+02       8.71383e+00      -1.66305e+00       7.59453e-04       6.03105e+02
  4.500      2.75750e+02       8.77896e+00      -1.85752e+00       7.52735e-04       5.95717e+02
  4.600      2.74788e+02       8.82396e+00      -2.05197e+00       7.46088e-04       5.88396e+02
  4.700      2.73826e+02       8.85865e+00      -2.23877e+00       7.39476e-04       5.81139e+02
  4.800      2.72876e+02       8.89291e+00      -2.41021e+00       7.32865e-04       5.73947e+02
  4.900      2.71949e+02       8.93830e+00      -2.55847e+00       7.26233e-04       5.66820e+02
  5.000      2.71044e+02       9.01083e+00      -2.67539e+00       7.19579e-04       5.59758e+02
  5.100      2.70160e+02       9.12721e+00      -2.75278e+00       7.12907e-04       5.52760e+02
  5.200      2.69298e+02       9.30373e+00      -2.78276e+00       7.06220e-04       5.45827e+02
  5.300      2.68458e+02       9.55036e+00      -2.76239e+00       6.99514e-04       5.38958e+02
  5.400      2.67648e+02       9.87229e+00      -2.69249e+00       6.92777e-04       5.32155e+02
  5.500      2.66870e+02       1.02745e+01      -2.57397e+00       6.85999e-04       5.25419e+02
  5.600      2.66130e+02       1.07603e+01      -2.40874e+00       6.79173e-04       5.18749e+02
  5.700      2.65429e+02       1.13240e+01      -2.20346e+00       6.72300e-04       5.12146e+02
  5.800      2.64766e+02       1.19574e+01      -1.96623e+00       6.65383e-04       5.05610e+02
  5.900      2.64140e+02       1.26521e+01      -1.70515e+00       6.58426e-04       4.99141e+02
  6.000      2.63548e+02       1.33968e+01      -1.42751e+00       6.51443e-04       4.92740e+02
  6.100      2.62976e+02       1.41716e+01      -1.13842e+00       6.44467e-04       4.86406e+02
  6.200      2.62410e+02       1.49554e+01      -8.42640e-01       6.37537e-04       4.80140e+02
  6.300      2.61835e+02       1.57271e+01      -5.44906e-01       6.30690e-04       4.73941e+02
  6.400      2.61240e+02       1.64697e+01      -2.49895e-01       6.23946e-04       4.67809e+02
  6.500      2.60631e+02       1.71771e+01       3.79216e-02       6.17294e-04       4.61743e+02
  6.600      2.60014e+02       1.78446e+01       3.14095e-01       6.10719e-04       4.55742e+02
  6.700      2.59393e+02       1.84674e+01       5.74180e-01       6.04203e-04       4.49804e+02
  6.800      2.58775e+02       1.90431e+01       8.15121e-01       5.97735e-04       4.43929e+02
  6.900      2.58163e+02       1.95779e+01       1.03890e+00       5.91307e-04       4.38116e+02
  7.000      2.57558e+02       2.00796e+01       1.24864e+00       5.84917e-04       4.32365e+02
  7.100      2.56962e+02       2.05563e+01       1.44746e+00       5.78561e-04       4.26678e+02
  7.200      2.56378e+02       2.10158e+01       1.63889e+00       5.72234e-04       4.21053e+02
  7.300      2.55809e+02       2.14664e+01       1.83060e+00       5.65933e-04       4.15491e+02
  7.400      2.55254e+02       2.19164e+01       2.03269e+00       5.59654e-04       4.09991e+02
  7.500      2.54717e+02       2.23741e+01       2.25527e+00       5.53394e-04       4.04553e+02
  7.600      2.54199e+02       2.28477e+01       2.50845e+00       5.47150e-04       3.99174e+02
  7.700      2.53701e+02       2.33442e+01       2.79781e+00       5.40922e-04       3.93856e+02
  7.800      2.53217e+02       2.38670e+01       3.11738e+00       5.34720e-04       3.88599e+02
  7.900      2.52744e+02       2.44191e+01       3.45939e+00       5.28555e-04       3.83401e+02
  8.000      2.52276e+02       2.50033e+01       3.81607e+00       5.22440e-04       3.78263e+02
  8.100      2.51808e+02       2.56226e+01       4.17966e+00       5.16384e-04       3.73186e+02
  8.200      2.51337e+02       2.62782e+01       4.54267e+00       5.10395e-04       3.68168e+02
  8.300      2.50860e+02       2.69693e+01       4.89800e+00       5.04480e-04       3.63209e+02
  8.400      2.50371e+02       2.76947e+01       5.23860e+00       4.98642e-04       3.58307e+02
  8.500      2.49870e+02       2.84532e+01       5.55740e+00       4.92886e-04       3.53462e+02
  8.600      2.49352e+02       2.92437e+01       5.84738e+00       4.87218e-04       3.48673e+02
  8.700      2.48814e+02       3.00599e+01       6.10400e+00       4.81641e-04       3.43938e+02
  8.800      2.48253e+02       3.08863e+01       6.32725e+00       4.76161e-04       3.39257e+02
  8.900      2.47663e+02       3.17064e+01       6.51759e+00       4.70783e-04       3.34629e+02
  9.000      2.47041e+02       3.25038e+01       6.67547e+00       4.65514e-04       3.30053e+02
  9.100      2.46384e+02       3.32621e+01       6.80135e+00       4.60356e-04       3.25528e+02
  9.200      2.45689e+02       3.39657e+01       6.89597e+00       4.55314e-04       3.21053e+02
  9.300      2.44961e+02       3.46049e+01       6.96169e+00       4.50371e-04       3.16628e+02
  9.400      2.44211e+02       3.51719e+01       7.00145e+00       4.45509e-04       3.12251e+02
  9.500      2.43448e+02       3.56588e+01       7.01820e+00       4.40710e-04       3.07922e+02
  9.600      2.42682e+02       3.60579e+01       7.01488e+00       4.35954e-04       3.03640e+02
  9.700      2.41921e+02       3.63612e+01       6.99441e+00       4.31224e-04       2.99405e+02
  9.800      2.41174e+02       3.65674e+01       6.95987e+00       4.26507e-04       2.95215e+02
  9.900      2.40445e+02       3.66925e+01       6.91458e+00       4.21796e-04       2.91071e+02
 10.000      2.39736e+02       3.67551e+01       6.86193e+00       4.17088e-04       2.86974e+02
 10.100      2.39050e+02       3.67738e+01       6.80533e+00       4.12379e-04       2.82922e+02
 10.200      2.38391e+02       3.67672e+01       6.74816e+00       4.07665e-04       2.78917e+02
 10.300      2.37762e+02       3.67539e+01       6.69380e+00       4.02943e-04       2.74959e+02
 10.400      2.37163e+02       3.67492e+01       6.64546e+00       3.98213e-04       2.71047e+02
 10.500      2.36587e+02       3.67545e+01       6.60564e+00       3.93489e-04       2.67181e+02
 10.600      2.36025e+02       3.67681e+01       6.57666e+00       3.88787e-04       2.63361e+02
 10.700      2.35468e+02       3.67884e+01       6.56082e+00       3.84121e-04       2.59587e+02
 10.800      2.34906e+02       3.68134e+01       6.56045e+00       3.79508e-04       2.55857e+02
 10.900      2.34331e+02       3.68416e+01       6.57787e+00       3.74961e-04       2.52172e+02
 11.000      2.33732e+02       3.68711e+01       6.61530e+00       3.70493e-04       2.48531e+02
 11.100      2.33108e+02       3.68986e+01       6.67154e+00       3.66109e-04       2.44934e+02
 11.200      2.32463e+02       3.69183e+01       6.74099e+00       3.61796e-04       2.41380e+02
 11.300      2.31805e+02       3.69248e+01       6.81776e+00       3.57545e-04       2.37868e+02
 11.400      2.31139e+02       3.69121e+01       6.89597e+00       3.53345e-04       2.34398e+02
 11.500      2.30471e+02       3.68748e+01       6.96973e+00       3.49187e-04       2.30970e+02
 11.600      2.29807e+02       3.68071e+01       7.03315e+00       3.45059e-04       2.27582e+02
 11.700      2.29153e+02       3.67033e+01       7.08035e+00       3.40954e-04       2.24235e+02
 11.800      2.28512e+02       3.65615e+01       7.10700e+00       3.36867e-04       2.20928e+02
 11.900      2.27879e+02       3.63875e+01       7.11194e+00       3.32806e-04       2.17660e+02
 12.000      2.27250e+02       3.61880e+01       7.09440e+00       3.28777e-04       2.14431e+02
 12.100      2.26619e+02       3.59699e+01       7.05361e+00       3.24788e-04       2.11241e+02
 12.200      2.25980e+02       3.57397e+01       6.98880e+00       3.20847e-04       2.08089e+02
 12.300      2.25328e+02       3.55043e+01       6.89921e+00       3.16960e-04       2.04975e+02
 12.400      2.24658e+02       3.52705e+01       6.78405e+00       3.13135e-04       2.01899e+02
 12.500      2.23965e+02       3.50447e+01       6.64262e+00       3.09376e-04       1.98861e+02
 12.600      2.23248e+02       3.48311e+01       6.47629e+00       3.05686e-04       1.95859e+02
 12.700      2.22509e+02       3.46294e+01       6.28939e+00       3.02057e-04       1.92894e+02
 12.800      2.21753e+02       3.44394e+01       6.08643e+00       2.98483e-04       1.89963e+02
 12.900      2.20983e+02       3.42608e+01       5.87193e+00       2.94957e-04       1.87068e+02
 13.000      2.20204e+02       3.40932e+01       5.65042e+00       2.91474e-04       1.84208e+02
 13.100      2.19419e+02       3.39364e+01       5.42643e+00       2.88027e-04       1.81381e+02
 13.200      2.18633e+02       3.37900e+01       5.20448e+00       2.84611e-04       1.78587e+02
 13.300      2.17849e+02       3.36537e+01       4.98908e+00       2.81219e-04       1.75826e+02
 13.400      2.17071e+02       3.35266e+01       4.78454e+00       2.77846e-04       1.73097e+02
 13.500      2.16303e+02       3.34022e+01       4.59270e+00       2.74489e-04       1.70400e+02
 13.600      2.15546e+02       3.32708e+01       4.41399e+00       2.71145e-04       1.67735e+02
 13.700      2.14805e+02       3.31223e+01       4.24882e+00       2.67813e-04       1.65104e+02
 13.800      2.14082e+02       3.29468e+01       4.09758e+00       2.64489e-04       1.62506e+02
 13.900      2.13379e+02       3.27345e+01       3.96068e+00       2.61172e-04       1.59941e+02
 14.000      2.12700e+02       3.24755e+01       3.83851e+00       2.57859e-04       1.57410e+02
 14.100      2.12048e+02       3.21599e+01       3.73149e+00       2.54549e-04       1.54913e+02
 14.200      2.11424e+02       3.17777e+01       3.64000e+00       2.51240e-04       1.52449e+02
 14.300      2.10834e+02       3.13190e+01       3.56446e+00       2.47929e-04       1.50020e+02
 14.400      2.10277e+02       3.07771e+01       3.50477e+00       2.44616e-04       1.47624e+02
 14.500      2.09757e+02       3.01578e+01       3.45884e+00       2.41299e-04       1.45262e+02
 14.600      2.09273e+02       2.94701e+01       3.42403e+00       2.37979e-04       1.42933e+02
 14.700      2.08825e+02       2.87231e+01       3.39772e+00       2.34655e-04       1.40635e+02
 14.800      2.08415e+02       2.79259e+01       3.37730e+00       2.31328e-04       1.38369e+02
 14.900      2.08043e+02       2.70875e+01       3.36014e+00       2.27996e-04       1.36133e+02
 15.000      2.07709e+02       2.62171e+01       3.34363e+00       2.24661e-04       1.33926e+02
 15.100      2.07414e+02       2.53236e+01       3.32513e+00       2.21323e-04       1.31749e+02
 15.200      2.07159e+02       2.44163e+01       3.30203e+00       2.17981e-04       1.29600e+02
 15.300      2.06944e+02       2.35040e+01       3.27170e+00       2.14636e-04       1.27479e+02
 15.400      2.06770e+02       2.25959e+01       3.23153e+00       2.11289e-04       1.25385e+02
 15.500      2.06636e+02       2.17004e+01       3.17928e+00       2.07940e-04       1.23318e+02
 15.600      2.06542e+02       2.08198e+01       3.11552e+00       2.04595e-04       1.21279e+02
 15.700      2.06484e+02       1.99545e+01       3.04198e+00       2.01260e-04       1.19269e+02
 15.800      2.06459e+02       1.91046e+01       2.96043e+00       1.97943e-04       1.17289e+02
 15.900      2.06465e+02       1.82702e+01       2.87261e+00       1.94649e-04       1.15340e+02
 16.000      2.06498e+02       1.74514e+01       2.78028e+00       1.91385e-04       1.13424e+02
 16.100      2.06555e+02       1.66484e+01       2.68520e+00       1.88155e-04       1.11541e+02
 16.200      2.06635e+02       1.58614e+01       2.58911e+00       1.84965e-04       1.09692e+02
 16.300      2.06733e+02       1.50906e+01       2.49377e+00       1.81820e-04       1.07878e+02
 16.400      2.06847e+02       1.43359e+01       2.40093e+00       1.78724e-04       1.06100e+02
 16.500      2.06974e+02       1.35977e+01       2.31236e+00       1.75680e-04       1.04357e+02
 16.600      2.07112e+02       1.28760e+01       2.22979e+00       1.72694e-04       1.02651e+02
 16.700      2.07257e+02       1.21709e+01       2.15498e+00       1.69768e-04       1.00982e+02
 16.800      2.07406e+02       1.14828e+01       2.08967e+00       1.66905e-04       9.93511e+01
 16.900      2.07559e+02       1.08115e+01       2.03461e+00       1.64105e-04       9.77565e+01
 17.000      2.07714e+02       1.01570e+01       1.98929e+00       1.61367e-04       9.61971e+01
 17.100      2.07872e+02       9.51919e+00       1.95314e+00       1.58687e-04       9.46712e+01
 17.200      2.08033e+02       8.89801e+00       1.92557e+00       1.56061e-04       9.31771e+01
 17.300      2.08197e+02       8.29336e+00       1.90598e+00       1.53489e-04       9.17133e+01
 17.400      2.08363e+02       7.70514e+00       1.89381e+00       1.50966e-04       9.02784e+01
 17.500      2.08534e+02       7.13324e+00       1.88845e+00       1.48492e-04       8.88710e+01
 17.600      2.08707e+02       6.57760e+00       1.88933e+00       1.46062e-04       8.74897e+01
 17.700      2.08883e+02       6.03810e+00       1.89586e+00       1.43676e-04       8.61332e+01
 17.800      2.09063e+02       5.51467e+00       1.90745e+00       1.41331e-04       8.48003e+01
 17.900      2.09246e+02       5.00720e+00       1.92351e+00       1.39025e-04       8.34899e+01
 18.000      2.09433e+02       4.51561e+00       1.94348e+00       1.36757e-04       8.22008e+01
 18.100      2.09623e+02       4.03980e+00       1.96674e+00       1.34524e-04       8.09319e+01
 18.200      2.09817e+02       3.57967e+00       1.99273e+00       1.32324e-04       7.96824e+01
 18.300      2.10014e+02       3.13516e+00       2.02086e+00       1.30157e-04       7.84511e+01
 18.400      2.10215e+02       2.70614e+00       2.05053e+00       1.28021e-04       7.72373e+01
 18.500      2.10420e+02       2.29253e+00       2.08117e+00       1.25914e-04       7.60399e+01
 18.600      2.10628e+02       1.89425e+00       2.11219e+00       1.23834e-04       7.48582e+01
 18.700      2.10840e+02       1.51119e+00       2.14300e+00       1.21781e-04       7.36914e+01
 18.800      2.11057e+02       1.14328e+00       2.17301e+00       1.19754e-04       7.25387e+01
 18.900      2.11277e+02       7.90400e-01       2.20165e+00       1.17750e-04       7.13995e+01
 19.000      2.11501e+02       4.52473e-01       2.22833e+00       1.15770e-04       7.02730e+01
 19.100      2.11729e+02       1.29366e-01       2.25250e+00       1.13811e-04       6.91587e+01
 19.200      2.11961e+02      -1.79402e-01       2.27400e+00       1.11875e-04       6.80568e+01
 19.300      2.12196e+02      -4.74477e-01       2.29287e+00       1.09963e-04       6.69678e+01
 19.400      2.12433e+02      -7.56525e-01       2.30912e+00       1.08076e-04       6.58920e+01
 19.500      2.12672e+02      -1.02619e+00       2.32280e+00       1.06215e-04       6.48300e+01
 19.600      2.12912e+02      -1.28414e+00       2.33394e+00       1.04380e-04       6.37820e+01
 19.700      2.13152e+02      -1.53102e+00       2.34255e+00       1.02573e-04       6.27486e+01
 19.800      2.13392e+02      -1.76748e+00       2.34868e+00       1.00794e-04       6.17299e+01
 19.900      2.13631e+02      -1.99418e+00       2.35236e+00       9.90444e-05       6.07262e+01
 20.000      2.13869e+02      -2.21178e+00       2.35361e+00       9.73242e-05       5.97379e+01
 20.100      2.14104e+02      -2.42092e+00       2.35246e+00       9.56341e-05       5.87652e+01
 20.200      2.14337e+02      -2.62227e+00       2.34896e+00       9.39746e-05       5.78082e+01
 20.300      2.14566e+02      -2.81647e+00       2.34311e+00       9.23461e-05       5.68672e+01
