# Data Source: NASA GEOS5 Near-Real-Time
# Model Time = 2010-12-15 18:00:00
# Location = [  39.7393, -104.9900 ]
# Fields = [ Z(km), T(K), U(m/s), V(m/s), R(g/cm3), P(mbar) ]
# Ground Height = 1.589
  0.000      2.94230e+02      -3.32656e+00       2.83945e+00       1.18124e-03       9.97487e+02
  0.100      2.93597e+02      -3.31624e+00       2.81970e+00       1.16998e-03       9.85855e+02
  0.200      2.92953e+02      -3.31234e+00       2.78219e+00       1.15887e-03       9.74346e+02
  0.300      2.92294e+02      -3.32139e+00       2.72297e+00       1.14789e-03       9.62948e+02
  0.400      2.91630e+02      -3.35400e+00       2.67405e+00       1.13702e-03       9.51660e+02
  0.500      2.90971e+02      -3.41841e+00       2.66893e+00       1.12621e-03       9.40482e+02
  0.600      2.90324e+02      -3.50210e+00       2.70289e+00       1.11544e-03       9.29418e+02
  0.700      2.89695e+02      -3.58467e+00       2.75623e+00       1.10470e-03       9.18472e+02
  0.800      2.89067e+02      -3.64651e+00       2.80652e+00       1.09404e-03       9.07642e+02
  0.900      2.88411e+02      -3.66889e+00       2.82955e+00       1.08358e-03       8.96921e+02
  1.000      2.87722e+02      -3.64845e+00       2.82454e+00       1.07332e-03       8.86306e+02
  1.100      2.87040e+02      -3.60866e+00       2.83189e+00       1.06311e-03       8.75797e+02
  1.200      2.86401e+02      -3.57001e+00       2.88651e+00       1.05283e-03       8.65397e+02
  1.300      2.85800e+02      -3.52432e+00       2.97483e+00       1.04250e-03       8.55104e+02
  1.400      2.85215e+02      -3.45594e+00       3.06852e+00       1.03219e-03       8.44916e+02
  1.500      2.84613e+02      -3.38456e+00       3.14938e+00       1.02203e-03       8.34834e+02
  1.600      2.83951e+02      -3.36517e+00       3.20936e+00       1.01217e-03       8.24859e+02
  1.700      2.83196e+02      -3.43005e+00       3.23988e+00       1.00273e-03       8.14992e+02
  1.800      2.82374e+02      -3.51843e+00       3.22869e+00       9.93596e-04       8.05223e+02
  1.900      2.81523e+02      -3.54903e+00       3.16300e+00       9.84616e-04       7.95541e+02
  2.000      2.80671e+02      -3.49011e+00       3.03852e+00       9.75690e-04       7.85943e+02
  2.100      2.79834e+02      -3.36468e+00       2.86038e+00       9.66767e-04       7.76435e+02
  2.200      2.79029e+02      -3.19028e+00       2.63836e+00       9.57801e-04       7.67020e+02
  2.300      2.78270e+02      -2.93195e+00       2.40850e+00       9.48743e-04       7.57699e+02
  2.400      2.77572e+02      -2.53425e+00       2.21704e+00       9.39543e-04       7.48469e+02
  2.500      2.76930e+02      -1.96538e+00       2.09164e+00       9.30216e-04       7.39327e+02
  2.600      2.76300e+02      -1.25172e+00       2.01436e+00       9.20922e-04       7.30275e+02
  2.700      2.75629e+02      -4.27949e-01       1.96044e+00       9.11835e-04       7.21312e+02
  2.800      2.74892e+02       4.86359e-01       1.90771e+00       9.03034e-04       7.12440e+02
  2.900      2.74098e+02       1.49063e+00       1.83719e+00       8.94482e-04       7.03656e+02
  3.000      2.73260e+02       2.58432e+00       1.73051e+00       8.86136e-04       6.94957e+02
  3.100      2.72394e+02       3.74797e+00       1.57525e+00       8.77932e-04       6.86342e+02
  3.200      2.71524e+02       4.94679e+00       1.36386e+00       8.69792e-04       6.77805e+02
  3.300      2.70670e+02       6.14646e+00       1.09055e+00       8.61643e-04       6.69344e+02
  3.400      2.69836e+02       7.32293e+00       7.68255e-01       8.53481e-04       6.60960e+02
  3.500      2.69009e+02       8.45868e+00       4.21914e-01       8.45346e-04       6.52655e+02
  3.600      2.68183e+02       9.53852e+00       7.58685e-02       8.37270e-04       6.44434e+02
  3.700      2.67361e+02       1.05714e+01      -2.54314e-01       8.29237e-04       6.36296e+02
  3.800      2.66559e+02       1.15815e+01      -5.58556e-01       8.21200e-04       6.28237e+02
  3.900      2.65788e+02       1.25908e+01      -8.27238e-01       8.13115e-04       6.20254e+02
  4.000      2.65050e+02       1.35883e+01      -1.05638e+00       8.04984e-04       6.12347e+02
  4.100      2.64335e+02       1.45369e+01      -1.24640e+00       7.96843e-04       6.04518e+02
  4.200      2.63631e+02       1.53993e+01      -1.39775e+00       7.88728e-04       5.96769e+02
  4.300      2.62930e+02       1.61558e+01      -1.50817e+00       7.80669e-04       5.89099e+02
  4.400      2.62222e+02       1.68083e+01      -1.57197e+00       7.72690e-04       5.81508e+02
  4.500      2.61498e+02       1.73603e+01      -1.58330e+00       7.64815e-04       5.73994e+02
  4.600      2.60758e+02       1.78288e+01      -1.53640e+00       7.57047e-04       5.66556e+02
  4.700      2.60019e+02       1.82673e+01      -1.42580e+00       7.49332e-04       5.59193e+02
  4.800      2.59304e+02       1.87358e+01      -1.24608e+00       7.41608e-04       5.51906e+02
  4.900      2.58630e+02       1.92872e+01      -9.93783e-01       7.33825e-04       5.44694e+02
  5.000      2.57993e+02       1.99143e+01      -6.83152e-01       7.25998e-04       5.37558e+02
  5.100      2.57377e+02       2.05774e+01      -3.37895e-01       7.18179e-04       5.30498e+02
  5.200      2.56764e+02       2.12369e+01       1.82396e-02       7.10416e-04       5.23514e+02
  5.300      2.56142e+02       2.18768e+01       3.70558e-01       7.02746e-04       5.16607e+02
  5.400      2.55506e+02       2.25326e+01       7.23791e-01       6.95178e-04       5.09776e+02
  5.500      2.54854e+02       2.32464e+01       1.08519e+00       6.87716e-04       5.03017e+02
  5.600      2.54184e+02       2.40581e+01       1.46138e+00       6.80365e-04       4.96331e+02
  5.700      2.53496e+02       2.49678e+01       1.84745e+00       6.73116e-04       4.89715e+02
  5.800      2.52799e+02       2.59404e+01       2.22841e+00       6.65953e-04       4.83170e+02
  5.900      2.52096e+02       2.69400e+01       2.58890e+00       6.58859e-04       4.76695e+02
  6.000      2.51395e+02       2.79332e+01       2.91543e+00       6.51819e-04       4.70289e+02
  6.100      2.50699e+02       2.89127e+01       3.21153e+00       6.44822e-04       4.63952e+02
  6.200      2.50010e+02       2.98852e+01       3.48982e+00       6.37861e-04       4.57683e+02
  6.300      2.49332e+02       3.08573e+01       3.76299e+00       6.30929e-04       4.51482e+02
  6.400      2.48666e+02       3.18358e+01       4.04244e+00       6.24021e-04       4.45347e+02
  6.500      2.48011e+02       3.28284e+01       4.32852e+00       6.17145e-04       4.39279e+02
  6.600      2.47362e+02       3.38429e+01       4.61606e+00       6.10311e-04       4.33278e+02
  6.700      2.46714e+02       3.48872e+01       4.89984e+00       6.03532e-04       4.27343e+02
  6.800      2.46064e+02       3.59688e+01       5.17489e+00       5.96819e-04       4.21476e+02
  6.900      2.45413e+02       3.70866e+01       5.43977e+00       5.90166e-04       4.15675e+02
  7.000      2.44770e+02       3.82333e+01       5.69577e+00       5.83553e-04       4.09940e+02
  7.100      2.44140e+02       3.94014e+01       5.94425e+00       5.76965e-04       4.04269e+02
  7.200      2.43533e+02       4.05834e+01       6.18653e+00       5.70384e-04       3.98663e+02
  7.300      2.42949e+02       4.17714e+01       6.41905e+00       5.63804e-04       3.93121e+02
  7.400      2.42383e+02       4.29566e+01       6.62849e+00       5.57245e-04       3.87642e+02
  7.500      2.41826e+02       4.41302e+01       6.80036e+00       5.50726e-04       3.82226e+02
  7.600      2.41270e+02       4.52835e+01       6.92019e+00       5.44265e-04       3.76874e+02
  7.700      2.40707e+02       4.64079e+01       6.97363e+00       5.37882e-04       3.71584e+02
  7.800      2.40130e+02       4.74996e+01       6.94811e+00       5.31588e-04       3.66356e+02
  7.900      2.39536e+02       4.85579e+01       6.83224e+00       5.25392e-04       3.61190e+02
  8.000      2.38919e+02       4.95820e+01       6.61468e+00       5.19302e-04       3.56085e+02
  8.100      2.38276e+02       5.05713e+01       6.28407e+00       5.13326e-04       3.51039e+02
  8.200      2.37601e+02       5.15262e+01       5.83287e+00       5.07469e-04       3.46051e+02
  8.300      2.36901e+02       5.24560e+01       5.28231e+00       5.01720e-04       3.41122e+02
  8.400      2.36181e+02       5.33739e+01       4.66683e+00       4.96060e-04       3.36248e+02
  8.500      2.35449e+02       5.42931e+01       4.02091e+00       4.90471e-04       3.31430e+02
  8.600      2.34712e+02       5.52270e+01       3.37903e+00       4.84938e-04       3.26666e+02
  8.700      2.33978e+02       5.61868e+01       2.77576e+00       4.79443e-04       3.21954e+02
  8.800      2.33245e+02       5.71601e+01       2.24637e+00       4.73990e-04       3.17295e+02
  8.900      2.32507e+02       5.81181e+01       1.82662e+00       4.68591e-04       3.12689e+02
  9.000      2.31757e+02       5.90318e+01       1.55230e+00       4.63258e-04       3.08133e+02
  9.100      2.30989e+02       5.98723e+01       1.45920e+00       4.58006e-04       3.03630e+02
  9.200      2.30196e+02       6.06105e+01       1.58300e+00       4.52844e-04       2.99178e+02
  9.300      2.29376e+02       6.12264e+01       1.93379e+00       4.47778e-04       2.94777e+02
  9.400      2.28534e+02       6.17204e+01       2.46220e+00       4.42794e-04       2.90426e+02
  9.500      2.27678e+02       6.20960e+01       3.11045e+00       4.37875e-04       2.86124e+02
  9.600      2.26816e+02       6.23567e+01       3.82073e+00       4.33007e-04       2.81870e+02
  9.700      2.25954e+02       6.25058e+01       4.53524e+00       4.28173e-04       2.77665e+02
  9.800      2.25099e+02       6.25471e+01       5.19678e+00       4.23361e-04       2.73506e+02
  9.900      2.24256e+02       6.24943e+01       5.77684e+00       4.18563e-04       2.69393e+02
 10.000      2.23422e+02       6.23760e+01       6.28832e+00       4.13784e-04       2.65327e+02
 10.100      2.22596e+02       6.22218e+01       6.74734e+00       4.09029e-04       2.61308e+02
 10.200      2.21775e+02       6.20614e+01       7.17001e+00       4.04302e-04       2.57336e+02
 10.300      2.20956e+02       6.19246e+01       7.57248e+00       3.99609e-04       2.53410e+02
 10.400      2.20139e+02       6.18408e+01       7.97083e+00       3.94954e-04       2.49531e+02
 10.500      2.19322e+02       6.18315e+01       8.37519e+00       3.90336e-04       2.45698e+02
 10.600      2.18513e+02       6.18941e+01       8.77890e+00       3.85743e-04       2.41912e+02
 10.700      2.17720e+02       6.20224e+01       9.17240e+00       3.81160e-04       2.38170e+02
 10.800      2.16951e+02       6.22098e+01       9.54615e+00       3.76573e-04       2.34472e+02
 10.900      2.16214e+02       6.24500e+01       9.89061e+00       3.71967e-04       2.30818e+02
 11.000      2.15518e+02       6.27366e+01       1.01962e+01       3.67330e-04       2.27207e+02
 11.100      2.14870e+02       6.30626e+01       1.04533e+01       3.62650e-04       2.23637e+02
 11.200      2.14279e+02       6.34063e+01       1.06478e+01       3.57914e-04       2.20111e+02
 11.300      2.13757e+02       6.37246e+01       1.07596e+01       3.53114e-04       2.16630e+02
 11.400      2.13313e+02       6.39734e+01       1.07681e+01       3.48240e-04       2.13196e+02
 11.500      2.12958e+02       6.41083e+01       1.06527e+01       3.43284e-04       2.09812e+02
 11.600      2.12703e+02       6.40852e+01       1.03930e+01       3.38238e-04       2.06480e+02
 11.700      2.12557e+02       6.38597e+01       9.96835e+00       3.33097e-04       2.03202e+02
 11.800      2.12531e+02       6.33875e+01       9.35818e+00       3.27853e-04       1.99979e+02
 11.900      2.12630e+02       6.26370e+01       8.55316e+00       3.22513e-04       1.96813e+02
 12.000      2.12832e+02       6.16258e+01       7.58783e+00       3.17114e-04       1.93702e+02
 12.100      2.13110e+02       6.03838e+01       6.50751e+00       3.11701e-04       1.90645e+02
 12.200      2.13438e+02       5.89408e+01       5.35756e+00       3.06317e-04       1.87640e+02
 12.300      2.13788e+02       5.73266e+01       4.18326e+00       3.00999e-04       1.84685e+02
 12.400      2.14134e+02       5.55709e+01       3.02996e+00       2.95784e-04       1.81778e+02
 12.500      2.14447e+02       5.37036e+01       1.94297e+00       2.90706e-04       1.78919e+02
 12.600      2.14702e+02       5.17545e+01       9.67624e-01       2.85796e-04       1.76106e+02
 12.700      2.14873e+02       4.97537e+01       1.47330e-01       2.81079e-04       1.73337e+02
 12.800      2.14953e+02       4.77356e+01      -5.02916e-01       2.76557e-04       1.70612e+02
 12.900      2.14950e+02       4.57378e+01      -9.89811e-01       2.72211e-04       1.67929e+02
 13.000      2.14875e+02       4.37981e+01      -1.32063e+00       2.68024e-04       1.65288e+02
 13.100      2.14736e+02       4.19544e+01      -1.50262e+00       2.63978e-04       1.62688e+02
 13.200      2.14543e+02       4.02443e+01      -1.54306e+00       2.60058e-04       1.60128e+02
 13.300      2.14303e+02       3.87055e+01      -1.44920e+00       2.56250e-04       1.57607e+02
 13.400      2.14027e+02       3.73760e+01      -1.22831e+00       2.52539e-04       1.55124e+02
 13.500      2.13724e+02       3.62934e+01      -8.87652e-01       2.48913e-04       1.52680e+02
 13.600      2.13401e+02       3.54956e+01      -4.34482e-01       2.45358e-04       1.50272e+02
 13.700      2.13069e+02       3.50104e+01       1.22096e-01       2.41863e-04       1.47901e+02
 13.800      2.12732e+02       3.48100e+01       7.62643e-01       2.38420e-04       1.45565e+02
 13.900      2.12392e+02       3.48474e+01       1.46407e+00       2.35025e-04       1.43263e+02
 14.000      2.12055e+02       3.50753e+01       2.20330e+00       2.31670e-04       1.40994e+02
 14.100      2.11722e+02       3.54465e+01       2.95725e+00       2.28352e-04       1.38757e+02
 14.200      2.11399e+02       3.59137e+01       3.70283e+00       2.25065e-04       1.36550e+02
 14.300      2.11088e+02       3.64297e+01       4.41697e+00       2.21804e-04       1.34373e+02
 14.400      2.10792e+02       3.69473e+01       5.07657e+00       2.18564e-04       1.32226e+02
 14.500      2.10516e+02       3.74192e+01       5.65857e+00       2.15342e-04       1.30106e+02
 14.600      2.10263e+02       3.77983e+01       6.13987e+00       2.12133e-04       1.28013e+02
 14.700      2.10036e+02       3.80373e+01       6.49739e+00       2.08934e-04       1.25946e+02
 14.800      2.09839e+02       3.80907e+01       6.70905e+00       2.05740e-04       1.23905e+02
 14.900      2.09673e+02       3.79462e+01       6.77215e+00       2.02555e-04       1.21890e+02
 15.000      2.09535e+02       3.76218e+01       6.70153e+00       1.99382e-04       1.19901e+02
 15.100      2.09423e+02       3.71364e+01       6.51266e+00       1.96228e-04       1.17942e+02
 15.200      2.09335e+02       3.65091e+01       6.22103e+00       1.93097e-04       1.16011e+02
 15.300      2.09270e+02       3.57587e+01       5.84212e+00       1.89994e-04       1.14112e+02
 15.400      2.09226e+02       3.49043e+01       5.39139e+00       1.86923e-04       1.12243e+02
 15.500      2.09200e+02       3.39648e+01       4.88432e+00       1.83889e-04       1.10407e+02
 15.600      2.09189e+02       3.29592e+01       4.33640e+00       1.80894e-04       1.08604e+02
 15.700      2.09194e+02       3.19065e+01       3.76310e+00       1.77944e-04       1.06835e+02
 15.800      2.09210e+02       3.08256e+01       3.17989e+00       1.75040e-04       1.05100e+02
 15.900      2.09237e+02       2.97356e+01       2.60226e+00       1.72187e-04       1.03400e+02
 16.000      2.09272e+02       2.86554e+01       2.04567e+00       1.69387e-04       1.01735e+02
 16.100      2.09313e+02       2.76040e+01       1.52561e+00       1.66642e-04       1.00106e+02
 16.200      2.09358e+02       2.65975e+01       1.05512e+00       1.63954e-04       9.85134e+01
 16.300      2.09408e+02       2.56383e+01       6.35426e-01       1.61323e-04       9.69550e+01
 16.400      2.09461e+02       2.47245e+01       2.64093e-01       1.58744e-04       9.54295e+01
 16.500      2.09519e+02       2.38542e+01      -6.12727e-02       1.56215e-04       9.39352e+01
 16.600      2.09581e+02       2.30255e+01      -3.43077e-01       1.53735e-04       9.24707e+01
 16.700      2.09646e+02       2.22366e+01      -5.83726e-01       1.51300e-04       9.10346e+01
 16.800      2.09716e+02       2.14857e+01      -7.85621e-01       1.48908e-04       8.96254e+01
 16.900      2.09789e+02       2.07707e+01      -9.51177e-01       1.46558e-04       8.82418e+01
 17.000      2.09867e+02       2.00899e+01      -1.08280e+00       1.44247e-04       8.68825e+01
 17.100      2.09949e+02       1.94414e+01      -1.18288e+00       1.41973e-04       8.55464e+01
 17.200      2.10034e+02       1.88233e+01      -1.25384e+00       1.39735e-04       8.42322e+01
 17.300      2.10124e+02       1.82337e+01      -1.29809e+00       1.37531e-04       8.29389e+01
 17.400      2.10218e+02       1.76707e+01      -1.31802e+00       1.35359e-04       8.16655e+01
 17.500      2.10316e+02       1.71326e+01      -1.31604e+00       1.33217e-04       8.04108e+01
 17.600      2.10418e+02       1.66173e+01      -1.29456e+00       1.31105e-04       7.91740e+01
 17.700      2.10523e+02       1.61231e+01      -1.25598e+00       1.29020e-04       7.79542e+01
 17.800      2.10633e+02       1.56481e+01      -1.20272e+00       1.26961e-04       7.67505e+01
 17.900      2.10747e+02       1.51903e+01      -1.13717e+00       1.24928e-04       7.55620e+01
 18.000      2.10865e+02       1.47479e+01      -1.06175e+00       1.22918e-04       7.43880e+01
 18.100      2.10987e+02       1.43191e+01      -9.78856e-01       1.20931e-04       7.32279e+01
 18.200      2.11113e+02       1.39020e+01      -8.90897e-01       1.18966e-04       7.20807e+01
 18.300      2.11244e+02       1.34946e+01      -8.00279e-01       1.17021e-04       7.09460e+01
 18.400      2.11378e+02       1.30951e+01      -7.09406e-01       1.15095e-04       6.98230e+01
 18.500      2.11516e+02       1.27024e+01      -6.20073e-01       1.13189e-04       6.87115e+01
 18.600      2.11657e+02       1.23167e+01      -5.32548e-01       1.11303e-04       6.76119e+01
 18.700      2.11802e+02       1.19388e+01      -4.46861e-01       1.09439e-04       6.65248e+01
 18.800      2.11949e+02       1.15693e+01      -3.63044e-01       1.07597e-04       6.54508e+01
 18.900      2.12099e+02       1.12088e+01      -2.81124e-01       1.05779e-04       6.43901e+01
 19.000      2.12250e+02       1.08581e+01      -2.01133e-01       1.03985e-04       6.33433e+01
 19.100      2.12403e+02       1.05177e+01      -1.23102e-01       1.02217e-04       6.23108e+01
 19.200      2.12556e+02       1.01882e+01      -4.70619e-02       1.00474e-04       6.12929e+01
 19.300      2.12710e+02       9.87049e+00       2.69563e-02       9.87587e-05       6.02900e+01
 19.400      2.12864e+02       9.56504e+00       9.89246e-02       9.70706e-05       5.93023e+01
 19.500      2.13017e+02       9.27255e+00       1.68811e-01       9.54106e-05       5.83301e+01
 19.600      2.13169e+02       8.99366e+00       2.36585e-01       9.37791e-05       5.73737e+01
 19.700      2.13320e+02       8.72904e+00       3.02217e-01       9.21765e-05       5.64332e+01
 19.800      2.13469e+02       8.47933e+00       3.65674e-01       9.06035e-05       5.55089e+01
 19.900      2.13616e+02       8.24519e+00       4.26929e-01       8.90600e-05       5.46008e+01
 20.000      2.13760e+02       8.02726e+00       4.85949e-01       8.75467e-05       5.37092e+01
 20.100      2.13901e+02       7.82619e+00       5.42705e-01       8.60636e-05       5.28341e+01
 20.200      2.14039e+02       7.64264e+00       5.97165e-01       8.46110e-05       5.19757e+01
 20.300      2.14172e+02       7.47727e+00       6.49300e-01       8.31890e-05       5.11340e+01
