# Data Source: NASA GEOS5 Near-Real-Time
# Model Time = 2010-06-11 18:00:00
# Location = [  39.7393, -104.9900 ]
# Fields = [ Z(km), T(K), U(m/s), V(m/s), R(g/cm3), P(mbar) ]
# Ground Height = 1.589
  0.000      3.04055e+02      -3.40224e+00       6.17064e-01       1.15516e-03       1.00804e+03
  0.100      3.03408e+02      -3.39927e+00       5.51219e-01       1.14411e-03       9.96270e+02
  0.200      3.02758e+02      -3.39544e+00       4.89905e-01       1.13318e-03       9.84637e+02
  0.300      3.02091e+02      -3.38805e+00       4.47329e-01       1.12242e-03       9.73141e+02
  0.400      3.01404e+02      -3.37468e+00       4.26128e-01       1.11185e-03       9.61781e+02
  0.500      3.00716e+02      -3.35368e+00       4.00236e-01       1.10139e-03       9.50558e+02
  0.600      3.00044e+02      -3.32660e+00       3.48649e-01       1.09098e-03       9.39471e+02
  0.700      2.99387e+02      -3.30937e+00       2.94230e-01       1.08063e-03       9.28516e+02
  0.800      2.98736e+02      -3.31975e+00       2.69429e-01       1.07035e-03       9.17689e+02
  0.900      2.98083e+02      -3.34908e+00       2.71360e-01       1.06019e-03       9.06988e+02
  1.000      2.97422e+02      -3.37233e+00       2.75206e-01       1.05015e-03       8.96413e+02
  1.100      2.96758e+02      -3.37880e+00       2.71261e-01       1.04023e-03       8.85962e+02
  1.200      2.96121e+02      -3.38003e+00       2.73320e-01       1.03032e-03       8.75636e+02
  1.300      2.95531e+02      -3.38585e+00       2.89332e-01       1.02035e-03       8.65435e+02
  1.400      2.94952e+02      -3.38896e+00       2.89587e-01       1.01045e-03       8.55357e+02
  1.500      2.94335e+02      -3.37729e+00       2.34689e-01       1.00079e-03       8.45404e+02
  1.600      2.93649e+02      -3.34928e+00       1.30543e-01       9.91454e-04       8.35570e+02
  1.700      2.92884e+02      -3.31487e+00       3.29191e-02       9.82473e-04       8.25845e+02
  1.800      2.92038e+02      -3.28676e+00      -1.07840e-02       9.73834e-04       8.16219e+02
  1.900      2.91146e+02      -3.28890e+00      -1.00421e-02       9.65417e-04       8.06691e+02
  2.000      2.90252e+02      -3.34875e+00       7.48120e-03       9.57066e-04       7.97259e+02
  2.100      2.89385e+02      -3.48290e+00       3.54795e-02       9.48689e-04       7.87920e+02
  2.200      2.88544e+02      -3.68918e+00       1.04687e-01       9.40288e-04       7.78671e+02
  2.300      2.87722e+02      -3.96133e+00       2.46854e-01       9.31874e-04       7.69507e+02
  2.400      2.86939e+02      -4.25998e+00       4.53716e-01       9.23395e-04       7.60429e+02
  2.500      2.86225e+02      -4.52036e+00       6.86248e-01       9.14754e-04       7.51439e+02
  2.600      2.85603e+02      -4.68617e+00       9.06518e-01       9.05891e-04       7.42540e+02
  2.700      2.85022e+02      -4.76074e+00       1.08888e+00       8.96972e-04       7.33734e+02
  2.800      2.84402e+02      -4.77132e+00       1.21263e+00       8.88249e-04       7.25020e+02
  2.900      2.83683e+02      -4.74258e+00       1.27248e+00       8.79908e-04       7.16396e+02
  3.000      2.82881e+02      -4.68838e+00       1.32524e+00       8.71888e-04       7.07858e+02
  3.100      2.82030e+02      -4.61989e+00       1.44330e+00       8.64072e-04       6.99402e+02
  3.200      2.81163e+02      -4.54260e+00       1.67924e+00       8.56353e-04       6.91023e+02
  3.300      2.80305e+02      -4.44361e+00       2.02131e+00       8.48651e-04       6.82718e+02
  3.400      2.79480e+02      -4.30630e+00       2.44481e+00       8.40894e-04       6.74486e+02
  3.500      2.78704e+02      -4.11964e+00       2.93124e+00       8.33032e-04       6.66327e+02
  3.600      2.77973e+02      -3.89117e+00       3.48270e+00       8.25090e-04       6.58241e+02
  3.700      2.77274e+02      -3.63226e+00       4.10554e+00       8.17105e-04       6.50233e+02
  3.800      2.76600e+02      -3.35069e+00       4.79966e+00       8.09110e-04       6.42305e+02
  3.900      2.75945e+02      -3.03861e+00       5.53677e+00       8.01119e-04       6.34456e+02
  4.000      2.75307e+02      -2.68392e+00       6.28089e+00       7.93140e-04       6.26685e+02
  4.100      2.74682e+02      -2.27491e+00       6.99732e+00       7.85184e-04       6.18990e+02
  4.200      2.74063e+02      -1.80299e+00       7.66173e+00       7.77271e-04       6.11372e+02
  4.300      2.73442e+02      -1.26106e+00       8.25461e+00       7.69426e-04       6.03828e+02
  4.400      2.72808e+02      -6.42477e-01       8.75766e+00       7.61674e-04       5.96360e+02
  4.500      2.72162e+02       4.84661e-02       9.18074e+00       7.54017e-04       5.88966e+02
  4.600      2.71508e+02       7.96228e-01       9.56269e+00       7.46439e-04       5.81646e+02
  4.700      2.70853e+02       1.58474e+00       9.94369e+00       7.38923e-04       5.74399e+02
  4.800      2.70202e+02       2.39066e+00       1.03547e+01       7.31452e-04       5.67226e+02
  4.900      2.69559e+02       3.16785e+00       1.07981e+01       7.24018e-04       5.60125e+02
  5.000      2.68926e+02       3.86578e+00       1.12704e+01       7.16614e-04       5.53095e+02
  5.100      2.68307e+02       4.43606e+00       1.17687e+01       7.09232e-04       5.46137e+02
  5.200      2.67698e+02       4.86894e+00       1.22936e+01       7.01880e-04       5.39249e+02
  5.300      2.67092e+02       5.18798e+00       1.28491e+01       6.94575e-04       5.32430e+02
  5.400      2.66484e+02       5.41783e+00       1.34394e+01       6.87336e-04       5.25681e+02
  5.500      2.65866e+02       5.58424e+00       1.40657e+01       6.80180e-04       5.19000e+02
  5.600      2.65235e+02       5.71877e+00       1.47150e+01       6.73111e-04       5.12388e+02
  5.700      2.64591e+02       5.85497e+00       1.53693e+01       6.66132e-04       5.05844e+02
  5.800      2.63932e+02       6.02637e+00       1.60105e+01       6.59244e-04       4.99367e+02
  5.900      2.63259e+02       6.25611e+00       1.66231e+01       6.52445e-04       4.92957e+02
  6.000      2.62578e+02       6.53619e+00       1.72001e+01       6.45719e-04       4.86613e+02
  6.100      2.61897e+02       6.85283e+00       1.77356e+01       6.39046e-04       4.80335e+02
  6.200      2.61222e+02       7.19224e+00       1.82238e+01       6.32408e-04       4.74121e+02
  6.300      2.60557e+02       7.53946e+00       1.86649e+01       6.25798e-04       4.67971e+02
  6.400      2.59892e+02       7.87637e+00       1.90744e+01       6.19238e-04       4.61884e+02
  6.500      2.59219e+02       8.18434e+00       1.94702e+01       6.12751e-04       4.55860e+02
  6.600      2.58525e+02       8.44475e+00       1.98703e+01       6.06362e-04       4.49900e+02
  6.700      2.57804e+02       8.64486e+00       2.02836e+01       6.00085e-04       4.44001e+02
  6.800      2.57062e+02       8.79424e+00       2.06844e+01       5.93905e-04       4.38164e+02
  6.900      2.56308e+02       8.90780e+00       2.10389e+01       5.87800e-04       4.32388e+02
  7.000      2.55551e+02       9.00042e+00       2.13133e+01       5.81747e-04       4.26671e+02
  7.100      2.54799e+02       9.08663e+00       2.14761e+01       5.75728e-04       4.21014e+02
  7.200      2.54052e+02       9.17717e+00       2.15209e+01       5.69742e-04       4.15415e+02
  7.300      2.53305e+02       9.28057e+00       2.14557e+01       5.63799e-04       4.09874e+02
  7.400      2.52556e+02       9.40537e+00       2.12885e+01       5.57909e-04       4.04392e+02
  7.500      2.51799e+02       9.56005e+00       2.10275e+01       5.52080e-04       3.98967e+02
  7.600      2.51031e+02       9.75004e+00       2.06904e+01       5.46317e-04       3.93600e+02
  7.700      2.50257e+02       9.97374e+00       2.03161e+01       5.40612e-04       3.88288e+02
  7.800      2.49481e+02       1.02286e+01       1.99466e+01       5.34955e-04       3.83033e+02
  7.900      2.48706e+02       1.05119e+01       1.96241e+01       5.29336e-04       3.77833e+02
  8.000      2.47937e+02       1.08210e+01       1.93895e+01       5.23747e-04       3.72687e+02
  8.100      2.47174e+02       1.11469e+01       1.92570e+01       5.18186e-04       3.67595e+02
  8.200      2.46413e+02       1.14739e+01       1.92097e+01       5.12662e-04       3.62558e+02
  8.300      2.45651e+02       1.17857e+01       1.92292e+01       5.07183e-04       3.57573e+02
  8.400      2.44883e+02       1.20661e+01       1.92970e+01       5.01758e-04       3.52643e+02
  8.500      2.44106e+02       1.22992e+01       1.93949e+01       4.96394e-04       3.47765e+02
  8.600      2.43317e+02       1.24777e+01       1.95074e+01       4.91093e-04       3.42941e+02
  8.700      2.42520e+02       1.26038e+01       1.96225e+01       4.85851e-04       3.38168e+02
  8.800      2.41715e+02       1.26801e+01       1.97285e+01       4.80664e-04       3.33447e+02
  8.900      2.40904e+02       1.27094e+01       1.98133e+01       4.75527e-04       3.28776e+02
  9.000      2.40088e+02       1.26941e+01       1.98652e+01       4.70437e-04       3.24156e+02
  9.100      2.39270e+02       1.26424e+01       1.98818e+01       4.65389e-04       3.19585e+02
  9.200      2.38451e+02       1.25744e+01       1.98828e+01       4.60380e-04       3.15062e+02
  9.300      2.37632e+02       1.25119e+01       1.98912e+01       4.55407e-04       3.10589e+02
  9.400      2.36816e+02       1.24769e+01       1.99299e+01       4.50466e-04       3.06164e+02
  9.500      2.36003e+02       1.24914e+01       2.00216e+01       4.45556e-04       3.01788e+02
  9.600      2.35196e+02       1.25758e+01       2.01873e+01       4.40672e-04       2.97459e+02
  9.700      2.34393e+02       1.27300e+01       2.04145e+01       4.35817e-04       2.93178e+02
  9.800      2.33592e+02       1.29373e+01       2.06647e+01       4.30997e-04       2.88944e+02
  9.900      2.32791e+02       1.31805e+01       2.08985e+01       4.26215e-04       2.84758e+02
 10.000      2.31985e+02       1.34426e+01       2.10767e+01       4.21476e-04       2.80618e+02
 10.100      2.31173e+02       1.37064e+01       2.11598e+01       4.16787e-04       2.76524e+02
 10.200      2.30352e+02       1.39555e+01       2.11123e+01       4.12150e-04       2.72476e+02
 10.300      2.29521e+02       1.41836e+01       2.09511e+01       4.07565e-04       2.68474e+02
 10.400      2.28684e+02       1.43919e+01       2.07303e+01       4.03028e-04       2.64517e+02
 10.500      2.27841e+02       1.45816e+01       2.05051e+01       3.98534e-04       2.60603e+02
 10.600      2.26995e+02       1.47539e+01       2.03307e+01       3.94078e-04       2.56732e+02
 10.700      2.26147e+02       1.49102e+01       2.02621e+01       3.89658e-04       2.52904e+02
 10.800      2.25300e+02       1.50517e+01       2.03543e+01       3.85268e-04       2.49118e+02
 10.900      2.24459e+02       1.51822e+01       2.06385e+01       3.80899e-04       2.45374e+02
 11.000      2.23639e+02       1.53106e+01       2.10970e+01       3.76529e-04       2.41672e+02
 11.100      2.22855e+02       1.54464e+01       2.17065e+01       3.72134e-04       2.38015e+02
 11.200      2.22122e+02       1.55993e+01       2.24437e+01       3.67694e-04       2.34402e+02
 11.300      2.21456e+02       1.57787e+01       2.32851e+01       3.63187e-04       2.30834e+02
 11.400      2.20872e+02       1.59941e+01       2.42073e+01       3.58593e-04       2.27313e+02
 11.500      2.20385e+02       1.62550e+01       2.51870e+01       3.53892e-04       2.23838e+02
 11.600      2.19996e+02       1.65629e+01       2.62002e+01       3.49089e-04       2.20411e+02
 11.700      2.19688e+02       1.69066e+01       2.72224e+01       3.44218e-04       2.17031e+02
 11.800      2.19440e+02       1.72743e+01       2.82288e+01       3.39314e-04       2.13698e+02
 11.900      2.19233e+02       1.76540e+01       2.91947e+01       3.34412e-04       2.10411e+02
 12.000      2.19044e+02       1.80336e+01       3.00955e+01       3.29544e-04       2.07171e+02
 12.100      2.18856e+02       1.84013e+01       3.09064e+01       3.24742e-04       2.03976e+02
 12.200      2.18646e+02       1.87449e+01       3.16028e+01       3.20034e-04       2.00826e+02
 12.300      2.18399e+02       1.90532e+01       3.21619e+01       3.15445e-04       1.97722e+02
 12.400      2.18116e+02       1.93203e+01       3.25790e+01       3.10967e-04       1.94663e+02
 12.500      2.17812e+02       1.95437e+01       3.28593e+01       3.06577e-04       1.91648e+02
 12.600      2.17503e+02       1.97205e+01       3.30077e+01       3.02253e-04       1.88677e+02
 12.700      2.17203e+02       1.98480e+01       3.30295e+01       2.97974e-04       1.85749e+02
 12.800      2.16927e+02       1.99237e+01       3.29297e+01       2.93719e-04       1.82864e+02
 12.900      2.16690e+02       1.99447e+01       3.27135e+01       2.89470e-04       1.80021e+02
 13.000      2.16507e+02       1.99084e+01       3.23859e+01       2.85208e-04       1.77221e+02
 13.100      2.16392e+02       1.98121e+01       3.19522e+01       2.80917e-04       1.74462e+02
 13.200      2.16352e+02       1.96565e+01       3.14213e+01       2.76591e-04       1.71744e+02
 13.300      2.16379e+02       1.94504e+01       3.08107e+01       2.72247e-04       1.69067e+02
 13.400      2.16458e+02       1.92035e+01       3.01392e+01       2.67905e-04       1.66432e+02
 13.500      2.16579e+02       1.89253e+01       2.94256e+01       2.63581e-04       1.63837e+02
 13.600      2.16729e+02       1.86257e+01       2.86884e+01       2.59294e-04       1.61284e+02
 13.700      2.16895e+02       1.83144e+01       2.79466e+01       2.55059e-04       1.58771e+02
 13.800      2.17065e+02       1.80010e+01       2.72189e+01       2.50891e-04       1.56299e+02
 13.900      2.17227e+02       1.76952e+01       2.65239e+01       2.46804e-04       1.53868e+02
 14.000      2.17369e+02       1.74068e+01       2.58804e+01       2.42811e-04       1.51477e+02
 14.100      2.17478e+02       1.71454e+01       2.53070e+01       2.38923e-04       1.49127e+02
 14.200      2.17548e+02       1.69146e+01       2.48103e+01       2.35145e-04       1.46816e+02
 14.300      2.17579e+02       1.67100e+01       2.43807e+01       2.31471e-04       1.44542e+02
 14.400      2.17572e+02       1.65267e+01       2.40075e+01       2.27894e-04       1.42304e+02
 14.500      2.17529e+02       1.63596e+01       2.36797e+01       2.24409e-04       1.40101e+02
 14.600      2.17451e+02       1.62036e+01       2.33865e+01       2.21010e-04       1.37929e+02
 14.700      2.17338e+02       1.60538e+01       2.31171e+01       2.17692e-04       1.35788e+02
 14.800      2.17193e+02       1.59052e+01       2.28607e+01       2.14450e-04       1.33676e+02
 14.900      2.17016e+02       1.57526e+01       2.26064e+01       2.11280e-04       1.31592e+02
 15.000      2.16808e+02       1.55911e+01       2.23435e+01       2.08175e-04       1.29535e+02
 15.100      2.16571e+02       1.54156e+01       2.20610e+01       2.05133e-04       1.27503e+02
 15.200      2.16306e+02       1.52212e+01       2.17481e+01       2.02150e-04       1.25494e+02
 15.300      2.16014e+02       1.50033e+01       2.13952e+01       1.99221e-04       1.23509e+02
 15.400      2.15699e+02       1.47613e+01       2.10022e+01       1.96343e-04       1.21547e+02
 15.500      2.15364e+02       1.44968e+01       2.05743e+01       1.93514e-04       1.19610e+02
 15.600      2.15013e+02       1.42115e+01       2.01165e+01       1.90733e-04       1.17699e+02
 15.700      2.14651e+02       1.39069e+01       1.96339e+01       1.87996e-04       1.15815e+02
 15.800      2.14282e+02       1.35846e+01       1.91317e+01       1.85301e-04       1.13958e+02
 15.900      2.13909e+02       1.32461e+01       1.86148e+01       1.82647e-04       1.12130e+02
 16.000      2.13537e+02       1.28932e+01       1.80885e+01       1.80031e-04       1.10332e+02
 16.100      2.13170e+02       1.25273e+01       1.75577e+01       1.77451e-04       1.08564e+02
 16.200      2.12811e+02       1.21500e+01       1.70276e+01       1.74906e-04       1.06827e+02
 16.300      2.12466e+02       1.17630e+01       1.65033e+01       1.72394e-04       1.05122e+02
 16.400      2.12137e+02       1.13677e+01       1.59898e+01       1.69912e-04       1.03448e+02
 16.500      2.11829e+02       1.09659e+01       1.54923e+01       1.67460e-04       1.01807e+02
 16.600      2.11547e+02       1.05591e+01       1.50158e+01       1.65036e-04       1.00200e+02
 16.700      2.11293e+02       1.01487e+01       1.45648e+01       1.62637e-04       9.86250e+01
 16.800      2.11068e+02       9.73560e+00       1.41397e+01       1.60264e-04       9.70824e+01
 16.900      2.10870e+02       9.32018e+00       1.37394e+01       1.57916e-04       9.55704e+01
 17.000      2.10700e+02       8.90299e+00       1.33631e+01       1.55592e-04       9.40877e+01
 17.100      2.10556e+02       8.48454e+00       1.30096e+01       1.53290e-04       9.26327e+01
 17.200      2.10437e+02       8.06534e+00       1.26781e+01       1.51012e-04       9.12044e+01
 17.300      2.10342e+02       7.64590e+00       1.23674e+01       1.48756e-04       8.98014e+01
 17.400      2.10271e+02       7.22671e+00       1.20766e+01       1.46522e-04       8.84226e+01
 17.500      2.10222e+02       6.80828e+00       1.18046e+01       1.44309e-04       8.70669e+01
 17.600      2.10195e+02       6.39114e+00       1.15506e+01       1.42117e-04       8.57332e+01
 17.700      2.10188e+02       5.97577e+00       1.13133e+01       1.39945e-04       8.44204e+01
 17.800      2.10201e+02       5.56270e+00       1.10920e+01       1.37794e-04       8.31277e+01
 17.900      2.10233e+02       5.15242e+00       1.08855e+01       1.35662e-04       8.18541e+01
 18.000      2.10283e+02       4.74543e+00       1.06929e+01       1.33550e-04       8.05986e+01
 18.100      2.10349e+02       4.34226e+00       1.05131e+01       1.31456e-04       7.93605e+01
 18.200      2.10432e+02       3.94340e+00       1.03451e+01       1.29382e-04       7.81390e+01
 18.300      2.10530e+02       3.54937e+00       1.01880e+01       1.27326e-04       7.69332e+01
 18.400      2.10643e+02       3.16066e+00       1.00408e+01       1.25289e-04       7.57425e+01
 18.500      2.10768e+02       2.77778e+00       9.90236e+00       1.23269e-04       7.45661e+01
 18.600      2.10906e+02       2.40125e+00       9.77177e+00       1.21268e-04       7.34034e+01
 18.700      2.11056e+02       2.03156e+00       9.64800e+00       1.19284e-04       7.22538e+01
 18.800      2.11216e+02       1.66924e+00       9.53006e+00       1.17317e-04       7.11167e+01
 18.900      2.11386e+02       1.31478e+00       9.41694e+00       1.15368e-04       6.99915e+01
 19.000      2.11565e+02       9.68611e-01       9.30771e+00       1.13437e-04       6.88779e+01
 19.100      2.11752e+02       6.30923e-01       9.20173e+00       1.11524e-04       6.77764e+01
 19.200      2.11947e+02       3.01820e-01       9.09845e+00       1.09631e-04       6.66873e+01
 19.300      2.12148e+02      -1.85807e-02       8.99729e+00       1.07760e-04       6.56115e+01
 19.400      2.12356e+02      -3.30182e-01       8.89769e+00       1.05912e-04       6.45492e+01
 19.500      2.12570e+02      -6.32870e-01       8.79908e+00       1.04087e-04       6.35010e+01
 19.600      2.12788e+02      -9.26532e-01       8.70091e+00       1.02288e-04       6.24673e+01
 19.700      2.13011e+02      -1.21106e+00       8.60260e+00       1.00514e-04       6.14484e+01
 19.800      2.13238e+02      -1.48634e+00       8.50360e+00       9.87669e-05       6.04448e+01
 19.900      2.13469e+02      -1.75227e+00       8.40333e+00       9.70475e-05       5.94566e+01
 20.000      2.13701e+02      -2.00873e+00       8.30124e+00       9.53565e-05       5.84843e+01
 20.100      2.13936e+02      -2.25563e+00       8.19675e+00       9.36944e-05       5.75280e+01
 20.200      2.14172e+02      -2.49284e+00       8.08930e+00       9.20618e-05       5.65879e+01
 20.300      2.14408e+02      -2.72025e+00       7.97834e+00       9.04594e-05       5.56644e+01
