# Data Source: NASA MERRA (version 1)
# Model Time = 2010-03-14 18:00:00
# Location = [  39.7393, -104.9900 ]
# Fields = [ Z(km), T(K), U(m/s), V(m/s), R(g/cm3), P(mbar) ]
# Ground Height = 1.589
  0.000      2.85972e+02      -3.96910e+00      -1.14965e+00       1.24463e-03       1.02151e+03
  0.100      2.85346e+02      -3.98960e+00      -1.15669e+00       1.23250e-03       1.00935e+03
  0.200      2.84724e+02      -4.01965e+00      -1.15613e+00       1.22050e-03       9.97344e+02
  0.300      2.84101e+02      -4.04698e+00      -1.15775e+00       1.20862e-03       9.85478e+02
  0.400      2.83472e+02      -4.05929e+00      -1.17131e+00       1.19687e-03       9.73731e+02
  0.500      2.82833e+02      -4.05006e+00      -1.19940e+00       1.18523e-03       9.62091e+02
  0.600      2.82185e+02      -4.02945e+00      -1.22378e+00       1.17372e-03       9.50562e+02
  0.700      2.81529e+02      -4.00954e+00      -1.22888e+00       1.16233e-03       9.39152e+02
  0.800      2.80872e+02      -3.99757e+00      -1.22900e+00       1.15104e-03       9.27853e+02
  0.900      2.80219e+02      -3.99829e+00      -1.24402e+00       1.13980e-03       9.16661e+02
  1.000      2.79577e+02      -4.00723e+00      -1.26658e+00       1.12860e-03       9.05575e+02
  1.100      2.78952e+02      -4.01529e+00      -1.27583e+00       1.11742e-03       8.94596e+02
  1.200      2.78340e+02      -4.01820e+00      -1.26732e+00       1.10627e-03       8.83728e+02
  1.300      2.77734e+02      -4.01666e+00      -1.25337e+00       1.09519e-03       8.72968e+02
  1.400      2.77124e+02      -4.01156e+00      -1.24704e+00       1.08421e-03       8.62317e+02
  1.500      2.76500e+02      -4.00383e+00      -1.26139e+00       1.07336e-03       8.51773e+02
  1.600      2.75854e+02      -3.99463e+00      -1.30609e+00       1.06269e-03       8.41336e+02
  1.700      2.75188e+02      -3.98696e+00      -1.36790e+00       1.05218e-03       8.31003e+02
  1.800      2.74509e+02      -3.98450e+00      -1.42418e+00       1.04180e-03       8.20773e+02
  1.900      2.73820e+02      -3.99099e+00      -1.45226e+00       1.03153e-03       8.10644e+02
  2.000      2.73128e+02      -4.01014e+00      -1.42950e+00       1.02135e-03       8.00614e+02
  2.100      2.72439e+02      -4.04622e+00      -1.33783e+00       1.01123e-03       7.90682e+02
  2.200      2.71761e+02      -4.10624e+00      -1.18148e+00       1.00115e-03       7.80847e+02
  2.300      2.71102e+02      -4.19806e+00      -9.71332e-01       9.91065e-04       7.71111e+02
  2.400      2.70472e+02      -4.32950e+00      -7.18297e-01       9.80961e-04       7.61475e+02
  2.500      2.69878e+02      -4.50840e+00      -4.33270e-01       9.70808e-04       7.51939e+02
  2.600      2.69328e+02      -4.74319e+00      -1.28151e-01       9.60585e-04       7.42505e+02
  2.700      2.68814e+02      -5.04677e+00       1.77651e-01       9.50325e-04       7.33172e+02
  2.800      2.68322e+02      -5.43407e+00       4.61314e-01       9.40078e-04       7.23938e+02
  2.900      2.67838e+02      -5.92002e+00       7.00001e-01       9.29894e-04       7.14804e+02
  3.000      2.67347e+02      -6.51955e+00       8.70872e-01       9.19824e-04       7.05768e+02
  3.100      2.66837e+02      -7.24709e+00       9.51643e-01       9.09912e-04       6.96830e+02
  3.200      2.66299e+02      -8.09010e+00       9.48232e-01       9.00178e-04       6.87988e+02
  3.300      2.65740e+02      -8.99679e+00       9.07732e-01       8.90604e-04       6.79240e+02
  3.400      2.65163e+02      -9.91222e+00       8.80495e-01       8.81169e-04       6.70585e+02
  3.500      2.64574e+02      -1.07815e+01       9.16873e-01       8.71853e-04       6.62021e+02
  3.600      2.63977e+02      -1.15496e+01       1.06722e+00       8.62636e-04       6.53546e+02
  3.700      2.63379e+02      -1.21641e+01       1.37919e+00       8.53501e-04       6.45159e+02
  3.800      2.62784e+02      -1.26117e+01       1.85664e+00       8.44428e-04       6.36859e+02
  3.900      2.62199e+02      -1.29110e+01       2.46772e+00       8.35400e-04       6.28646e+02
  4.000      2.61629e+02      -1.30816e+01       3.17951e+00       8.26399e-04       6.20523e+02
  4.100      2.61081e+02      -1.31430e+01       3.95914e+00       8.17410e-04       6.12488e+02
  4.200      2.60562e+02      -1.31150e+01       4.77371e+00       8.08416e-04       6.04543e+02
  4.300      2.60076e+02      -1.30169e+01       5.59064e+00       7.99402e-04       5.96688e+02
  4.400      2.59621e+02      -1.28639e+01       6.38846e+00       7.90380e-04       5.88922e+02
  4.500      2.59185e+02      -1.26663e+01       7.15925e+00       7.81389e-04       5.81245e+02
  4.600      2.58754e+02      -1.24338e+01       7.89592e+00       7.72470e-04       5.73654e+02
  4.700      2.58313e+02      -1.21763e+01       8.59136e+00       7.63663e-04       5.66148e+02
  4.800      2.57850e+02      -1.19034e+01       9.23850e+00       7.55004e-04       5.58726e+02
  4.900      2.57351e+02      -1.16251e+01       9.83023e+00       7.46531e-04       5.51386e+02
  5.000      2.56804e+02      -1.13496e+01       1.03604e+01       7.38273e-04       5.44127e+02
  5.100      2.56209e+02      -1.10736e+01       1.08297e+01       7.30223e-04       5.36947e+02
  5.200      2.55572e+02      -1.07890e+01       1.12418e+01       7.22360e-04       5.29845e+02
  5.300      2.54899e+02      -1.04875e+01       1.16003e+01       7.14664e-04       5.22820e+02
  5.400      2.54196e+02      -1.01610e+01       1.19088e+01       7.07113e-04       5.15869e+02
  5.500      2.53469e+02      -9.80122e+00       1.21711e+01       6.99689e-04       5.08992e+02
  5.600      2.52722e+02      -9.39995e+00       1.23907e+01       6.92373e-04       5.02187e+02
  5.700      2.51963e+02      -8.95061e+00       1.25710e+01       6.85146e-04       4.95452e+02
  5.800      2.51193e+02      -8.46485e+00       1.27113e+01       6.78001e-04       4.88788e+02
  5.900      2.50415e+02      -7.96576e+00       1.28083e+01       6.70931e-04       4.82193e+02
  6.000      2.49629e+02      -7.47662e+00       1.28589e+01       6.63934e-04       4.75666e+02
  6.100      2.48838e+02      -7.02069e+00       1.28599e+01       6.57003e-04       4.69208e+02
  6.200      2.48041e+02      -6.62125e+00       1.28079e+01       6.50136e-04       4.62818e+02
  6.300      2.47241e+02      -6.30156e+00       1.26997e+01       6.43328e-04       4.56494e+02
  6.400      2.46440e+02      -6.08492e+00       1.25322e+01       6.36575e-04       4.50238e+02
  6.500      2.45637e+02      -5.98763e+00       1.23047e+01       6.29874e-04       4.44048e+02
  6.600      2.44833e+02      -5.99488e+00       1.20283e+01       6.23226e-04       4.37923e+02
  6.700      2.44026e+02      -6.08310e+00       1.17173e+01       6.16633e-04       4.31863e+02
  6.800      2.43217e+02      -6.22872e+00       1.13863e+01       6.10096e-04       4.25867e+02
  6.900      2.42403e+02      -6.40818e+00       1.10495e+01       6.03617e-04       4.19934e+02
  7.000      2.41585e+02      -6.59791e+00       1.07214e+01       5.97196e-04       4.14065e+02
  7.100      2.40760e+02      -6.77436e+00       1.04163e+01       5.90836e-04       4.08257e+02
  7.200      2.39929e+02      -6.91394e+00       1.01487e+01       5.84538e-04       4.02511e+02
  7.300      2.39091e+02      -6.99401e+00       9.93233e+00       5.78303e-04       3.96826e+02
  7.400      2.38246e+02      -7.00768e+00       9.77104e+00       5.72129e-04       3.91202e+02
  7.500      2.37397e+02      -6.96165e+00       9.66003e+00       5.66010e-04       3.85639e+02
  7.600      2.36545e+02      -6.86301e+00       9.59424e+00       5.59941e-04       3.80135e+02
  7.700      2.35693e+02      -6.71887e+00       9.56860e+00       5.53917e-04       3.74691e+02
  7.800      2.34843e+02      -6.53634e+00       9.57807e+00       5.47933e-04       3.69307e+02
  7.900      2.33998e+02      -6.32253e+00       9.61757e+00       5.41984e-04       3.63982e+02
  8.000      2.33159e+02      -6.08454e+00       9.68206e+00       5.36065e-04       3.58716e+02
  8.100      2.32328e+02      -5.82948e+00       9.76646e+00       5.30171e-04       3.53509e+02
  8.200      2.31509e+02      -5.56438e+00       9.86582e+00       5.24299e-04       3.48360e+02
  8.300      2.30699e+02      -5.29005e+00       9.98153e+00       5.18449e-04       3.43269e+02
  8.400      2.29897e+02      -4.99737e+00       1.01252e+01       5.12629e-04       3.38235e+02
  8.500      2.29096e+02      -4.67633e+00       1.03095e+01       5.06850e-04       3.33256e+02
  8.600      2.28293e+02      -4.31690e+00       1.05468e+01       5.01119e-04       3.28333e+02
  8.700      2.27482e+02      -3.90907e+00       1.08498e+01       4.95447e-04       3.23464e+02
  8.800      2.26660e+02      -3.44282e+00       1.12309e+01       4.89840e-04       3.18648e+02
  8.900      2.25822e+02      -2.90813e+00       1.17029e+01       4.84307e-04       3.13884e+02
  9.000      2.24964e+02      -2.29498e+00       1.22781e+01       4.78857e-04       3.09172e+02
  9.100      2.24080e+02      -1.59335e+00       1.29692e+01       4.73496e-04       3.04510e+02
  9.200      2.23167e+02      -7.93227e-01       1.37887e+01       4.68233e-04       2.99898e+02
  9.300      2.22224e+02       1.08531e-01       1.47402e+01       4.63068e-04       2.95336e+02
  9.400      2.21260e+02       1.08928e+00       1.57935e+01       4.57978e-04       2.90824e+02
  9.500      2.20292e+02       2.12039e+00       1.69107e+01       4.52936e-04       2.86363e+02
  9.600      2.19332e+02       3.17319e+00       1.80535e+01       4.47914e-04       2.81954e+02
  9.700      2.18395e+02       4.21901e+00       1.91842e+01       4.42887e-04       2.77598e+02
  9.800      2.17494e+02       5.22923e+00       2.02645e+01       4.37828e-04       2.73295e+02
  9.900      2.16644e+02       6.17516e+00       2.12565e+01       4.32712e-04       2.69047e+02
 10.000      2.15859e+02       7.02818e+00       2.21222e+01       4.27516e-04       2.64853e+02
 10.100      2.15153e+02       7.75961e+00       2.28235e+01       4.22217e-04       2.60714e+02
 10.200      2.14540e+02       8.34079e+00       2.33225e+01       4.16793e-04       2.56631e+02
 10.300      2.14033e+02       8.74308e+00       2.35810e+01       4.11224e-04       2.52604e+02
 10.400      2.13648e+02       8.93821e+00       2.35616e+01       4.05490e-04       2.48634e+02
 10.500      2.13387e+02       8.91897e+00       2.32534e+01       3.99594e-04       2.44720e+02
 10.600      2.13241e+02       8.70978e+00       2.26857e+01       3.93565e-04       2.40863e+02
 10.700      2.13198e+02       8.33766e+00       2.18911e+01       3.87434e-04       2.37063e+02
 10.800      2.13247e+02       7.82960e+00       2.09023e+01       3.81230e-04       2.33320e+02
 10.900      2.13376e+02       7.21262e+00       1.97518e+01       3.74983e-04       2.29636e+02
 11.000      2.13574e+02       6.51372e+00       1.84722e+01       3.68718e-04       2.26008e+02
 11.100      2.13829e+02       5.75992e+00       1.70961e+01       3.62462e-04       2.22439e+02
 11.200      2.14129e+02       4.97824e+00       1.56561e+01       3.56240e-04       2.18927e+02
 11.300      2.14464e+02       4.19567e+00       1.41847e+01       3.50072e-04       2.15473e+02
 11.400      2.14821e+02       3.43923e+00       1.27147e+01       3.43982e-04       2.12077e+02
 11.500      2.15189e+02       2.73592e+00       1.12785e+01       3.37987e-04       2.08738e+02
 11.600      2.15557e+02       2.11276e+00       9.90872e+00       3.32106e-04       2.05457e+02
 11.700      2.15912e+02       1.59676e+00       8.63803e+00       3.26355e-04       2.02232e+02
 11.800      2.16245e+02       1.21475e+00       7.49879e+00       3.20750e-04       1.99065e+02
 11.900      2.16547e+02       9.80083e-01       6.50877e+00       3.15297e-04       1.95954e+02
 12.000      2.16819e+02       8.83032e-01       5.66063e+00       3.09989e-04       1.92897e+02
 12.100      2.17063e+02       9.11628e-01       4.94465e+00       3.04820e-04       1.89894e+02
 12.200      2.17280e+02       1.05389e+00       4.35107e+00       2.99783e-04       1.86942e+02
 12.300      2.17472e+02       1.29786e+00       3.87012e+00       2.94870e-04       1.84041e+02
 12.400      2.17639e+02       1.63154e+00       3.49207e+00       2.90077e-04       1.81189e+02
 12.500      2.17784e+02       2.04297e+00       3.20715e+00       2.85397e-04       1.78385e+02
 12.600      2.17908e+02       2.52017e+00       3.00562e+00       2.80824e-04       1.75627e+02
 12.700      2.18012e+02       3.05117e+00       2.87772e+00       2.76354e-04       1.72914e+02
 12.800      2.18098e+02       3.62400e+00       2.81369e+00       2.71982e-04       1.70245e+02
 12.900      2.18167e+02       4.22668e+00       2.80380e+00       2.67701e-04       1.67619e+02
 13.000      2.18221e+02       4.84723e+00       2.83827e+00       2.63509e-04       1.65034e+02
 13.100      2.18261e+02       5.47369e+00       2.90737e+00       2.59400e-04       1.62490e+02
 13.200      2.18288e+02       6.09406e+00       3.00133e+00       2.55371e-04       1.59986e+02
 13.300      2.18304e+02       6.69640e+00       3.11040e+00       2.51417e-04       1.57521e+02
 13.400      2.18310e+02       7.26870e+00       3.22484e+00       2.47535e-04       1.55093e+02
 13.500      2.18308e+02       7.79902e+00       3.33489e+00       2.43721e-04       1.52702e+02
 13.600      2.18299e+02       8.27536e+00       3.43079e+00       2.39971e-04       1.50346e+02
 13.700      2.18284e+02       8.68733e+00       3.50391e+00       2.36283e-04       1.48026e+02
 13.800      2.18265e+02       9.03439e+00       3.55265e+00       2.32654e-04       1.45740e+02
 13.900      2.18241e+02       9.31981e+00       3.57811e+00       2.29084e-04       1.43487e+02
 14.000      2.18214e+02       9.54690e+00       3.58141e+00       2.25571e-04       1.41269e+02
 14.100      2.18183e+02       9.71893e+00       3.56367e+00       2.22114e-04       1.39084e+02
 14.200      2.18148e+02       9.83920e+00       3.52601e+00       2.18711e-04       1.36932e+02
 14.300      2.18111e+02       9.91100e+00       3.46953e+00       2.15361e-04       1.34812e+02
 14.400      2.18072e+02       9.93761e+00       3.39537e+00       2.12065e-04       1.32724e+02
 14.500      2.18032e+02       9.92232e+00       3.30462e+00       2.08819e-04       1.30668e+02
 14.600      2.17990e+02       9.86842e+00       3.19842e+00       2.05623e-04       1.28644e+02
 14.700      2.17947e+02       9.77921e+00       3.07787e+00       2.02476e-04       1.26650e+02
 14.800      2.17903e+02       9.65796e+00       2.94410e+00       1.99378e-04       1.24687e+02
 14.900      2.17860e+02       9.50797e+00       2.79822e+00       1.96326e-04       1.22755e+02
 15.000      2.17817e+02       9.33253e+00       2.64134e+00       1.93321e-04       1.20852e+02
 15.100      2.17775e+02       9.13492e+00       2.47459e+00       1.90361e-04       1.18978e+02
 15.200      2.17734e+02       8.91844e+00       2.29908e+00       1.87445e-04       1.17134e+02
 15.300      2.17695e+02       8.68636e+00       2.11592e+00       1.84572e-04       1.15318e+02
 15.400      2.17659e+02       8.44200e+00       1.92623e+00       1.81742e-04       1.13531e+02
 15.500      2.17625e+02       8.18862e+00       1.73114e+00       1.78953e-04       1.11771e+02
 15.600      2.17594e+02       7.92951e+00       1.53175e+00       1.76205e-04       1.10039e+02
 15.700      2.17567e+02       7.66798e+00       1.32918e+00       1.73498e-04       1.08335e+02
 15.800      2.17543e+02       7.40731e+00       1.12455e+00       1.70829e-04       1.06657e+02
 15.900      2.17525e+02       7.15078e+00       9.18975e-01       1.68199e-04       1.05006e+02
 16.000      2.17511e+02       6.90168e+00       7.13572e-01       1.65607e-04       1.03381e+02
 16.100      2.17502e+02       6.66331e+00       5.09457e-01       1.63052e-04       1.01782e+02
 16.200      2.17499e+02       6.43895e+00       3.07746e-01       1.60533e-04       1.00208e+02
 16.300      2.17502e+02       6.23144e+00       1.09487e-01       1.58050e-04       9.86596e+01
 16.400      2.17511e+02       6.04088e+00      -8.47266e-02       1.55602e-04       9.71356e+01
 16.500      2.17523e+02       5.86638e+00      -2.74454e-01       1.53191e-04       9.56356e+01
 16.600      2.17539e+02       5.70704e+00      -4.59257e-01       1.50815e-04       9.41592e+01
 16.700      2.17557e+02       5.56196e+00      -6.38700e-01       1.48475e-04       9.27058e+01
 16.800      2.17575e+02       5.43023e+00      -8.12340e-01       1.46171e-04       9.12750e+01
 16.900      2.17594e+02       5.31096e+00      -9.79748e-01       1.43902e-04       8.98661e+01
 17.000      2.17611e+02       5.20324e+00      -1.14048e+00       1.41670e-04       8.84789e+01
 17.100      2.17625e+02       5.10618e+00      -1.29411e+00       1.39473e-04       8.71128e+01
 17.200      2.17636e+02       5.01886e+00      -1.44019e+00       1.37312e-04       8.57673e+01
 17.300      2.17642e+02       4.94041e+00      -1.57828e+00       1.35187e-04       8.44421e+01
 17.400      2.17642e+02       4.86990e+00      -1.70795e+00       1.33097e-04       8.31367e+01
 17.500      2.17636e+02       4.80644e+00      -1.82876e+00       1.31042e-04       8.18507e+01
 17.600      2.17621e+02       4.74914e+00      -1.94027e+00       1.29022e-04       8.05837e+01
 17.700      2.17597e+02       4.69708e+00      -2.04205e+00       1.27037e-04       7.93354e+01
 17.800      2.17563e+02       4.64937e+00      -2.13366e+00       1.25087e-04       7.81053e+01
 17.900      2.17518e+02       4.60511e+00      -2.21466e+00       1.23172e-04       7.68932e+01
 18.000      2.17460e+02       4.56339e+00      -2.28461e+00       1.21291e-04       7.56985e+01
 18.100      2.17388e+02       4.52332e+00      -2.34308e+00       1.19443e-04       7.45212e+01
 18.200      2.17302e+02       4.48400e+00      -2.38963e+00       1.17630e-04       7.33606e+01
 18.300      2.17200e+02       4.44452e+00      -2.42382e+00       1.15850e-04       7.22167e+01
 18.400      2.17080e+02       4.40399e+00      -2.44522e+00       1.14104e-04       7.10890e+01
 18.500      2.16943e+02       4.36150e+00      -2.45339e+00       1.12390e-04       6.99772e+01
 18.600      2.16788e+02       4.31635e+00      -2.44807e+00       1.10709e-04       6.88810e+01
 18.700      2.16615e+02       4.26863e+00      -2.42974e+00       1.09060e-04       6.78006e+01
 18.800      2.16426e+02       4.21859e+00      -2.39904e+00       1.07440e-04       6.67356e+01
 18.900      2.16225e+02       4.16649e+00      -2.35659e+00       1.05849e-04       6.56861e+01
 19.000      2.16012e+02       4.11259e+00      -2.30303e+00       1.04285e-04       6.46521e+01
 19.100      2.15789e+02       4.05714e+00      -2.23900e+00       1.02748e-04       6.36334e+01
 19.200      2.15558e+02       4.00040e+00      -2.16513e+00       1.01236e-04       6.26300e+01
 19.300      2.15322e+02       3.94264e+00      -2.08205e+00       9.97482e-05       6.16419e+01
 19.400      2.15082e+02       3.88410e+00      -1.99041e+00       9.82832e-05       6.06688e+01
 19.500      2.14840e+02       3.82504e+00      -1.89082e+00       9.68401e-05       5.97108e+01
 19.600      2.14598e+02       3.76573e+00      -1.78394e+00       9.54181e-05       5.87677e+01
 19.700      2.14358e+02       3.70641e+00      -1.67039e+00       9.40162e-05       5.78395e+01
 19.800      2.14122e+02       3.64736e+00      -1.55081e+00       9.26334e-05       5.69260e+01
 19.900      2.13891e+02       3.58882e+00      -1.42583e+00       9.12690e-05       5.60271e+01
 20.000      2.13668e+02       3.53105e+00      -1.29609e+00       8.99221e-05       5.51427e+01
 20.100      2.13454e+02       3.47431e+00      -1.16222e+00       8.85919e-05       5.42727e+01
 20.200      2.13252e+02       3.41886e+00      -1.02486e+00       8.72777e-05       5.34169e+01
 20.300      2.13063e+02       3.36496e+00      -8.84642e-01       8.59787e-05       5.25753e+01
