# Data Source: NASA GEOS5 Near-Real-Time
# Model Time = 2010-10-14 18:00:00
# Location = [  39.7393, -104.9900 ]
# Fields = [ Z(km), T(K), U(m/s), V(m/s), R(g/cm3), P(mbar) ]
# Ground Height = 1.589
  0.000      3.03853e+02       3.21239e-01       1.16475e+00       1.17250e-03       1.02249e+03
  0.100      3.03228e+02       3.13580e-01       1.13928e+00       1.16120e-03       1.01055e+03
  0.200      3.02622e+02       3.06774e-01       1.10612e+00       1.14994e-03       9.98750e+02
  0.300      3.02013e+02       2.99866e-01       1.07387e+00       1.13880e-03       9.87087e+02
  0.400      3.01381e+02       2.91903e-01       1.05116e+00       1.12787e-03       9.75563e+02
  0.500      3.00711e+02       2.82549e-01       1.04373e+00       1.11719e-03       9.64178e+02
  0.600      3.00030e+02       2.74338e-01       1.04397e+00       1.10665e-03       9.52925e+02
  0.700      2.99370e+02       2.70978e-01       1.04128e+00       1.09614e-03       9.41795e+02
  0.800      2.98724e+02       2.79322e-01       1.03308e+00       1.08567e-03       9.30791e+02
  0.900      2.98066e+02       3.07309e-01       1.02102e+00       1.07537e-03       9.19925e+02
  1.000      2.97388e+02       3.47324e-01       1.00675e+00       1.06525e-03       9.09192e+02
  1.100      2.96711e+02       3.74866e-01       9.91801e-01       1.05521e-03       8.98579e+02
  1.200      2.96049e+02       3.73394e-01       9.74710e-01       1.04521e-03       8.88077e+02
  1.300      2.95407e+02       3.50035e-01       9.45935e-01       1.03525e-03       8.77700e+02
  1.400      2.94786e+02       3.15216e-01       8.96009e-01       1.02532e-03       8.67461e+02
  1.500      2.94167e+02       2.73593e-01       8.28353e-01       1.01551e-03       8.57355e+02
  1.600      2.93519e+02       2.26771e-01       7.53175e-01       1.00589e-03       8.47364e+02
  1.700      2.92820e+02       1.78723e-01       6.72821e-01       9.96528e-04       8.37476e+02
  1.800      2.92069e+02       1.37900e-01       5.74855e-01       9.87415e-04       8.27687e+02
  1.900      2.91265e+02       1.12422e-01       4.46159e-01       9.78546e-04       8.17996e+02
  2.000      2.90431e+02       1.02638e-01       2.82468e-01       9.69844e-04       8.08400e+02
  2.100      2.89600e+02       1.04607e-01       8.44186e-02       9.61201e-04       7.98903e+02
  2.200      2.88793e+02       1.21860e-01      -1.44053e-01       9.52542e-04       7.89502e+02
  2.300      2.88002e+02       1.79242e-01      -3.89807e-01       9.43896e-04       7.80192e+02
  2.400      2.87211e+02       3.04680e-01      -6.38257e-01       9.35307e-04       7.70969e+02
  2.500      2.86418e+02       5.04968e-01      -8.80247e-01       9.26780e-04       7.61832e+02
  2.600      2.85639e+02       7.62069e-01      -1.11301e+00       9.18274e-04       7.52785e+02
  2.700      2.84887e+02       1.05724e+00      -1.33461e+00       9.09750e-04       7.43834e+02
  2.800      2.84156e+02       1.37935e+00      -1.54827e+00       9.01226e-04       7.34976e+02
  2.900      2.83430e+02       1.72192e+00      -1.76032e+00       8.92751e-04       7.26204e+02
  3.000      2.82694e+02       2.07619e+00      -1.97554e+00       8.84363e-04       7.17513e+02
  3.100      2.81952e+02       2.41941e+00      -2.18907e+00       8.76050e-04       7.08901e+02
  3.200      2.81214e+02       2.72359e+00      -2.39242e+00       8.67781e-04       7.00372e+02
  3.300      2.80488e+02       2.96544e+00      -2.57870e+00       8.59533e-04       6.91925e+02
  3.400      2.79773e+02       3.14348e+00      -2.74818e+00       8.51312e-04       6.83559e+02
  3.500      2.79062e+02       3.26241e+00      -2.90321e+00       8.43135e-04       6.75274e+02
  3.600      2.78353e+02       3.32748e+00      -3.04652e+00       8.35011e-04       6.67067e+02
  3.700      2.77654e+02       3.34642e+00      -3.18254e+00       8.26915e-04       6.58940e+02
  3.800      2.76976e+02       3.32762e+00      -3.31619e+00       8.18816e-04       6.50895e+02
  3.900      2.76331e+02       3.27791e+00      -3.45179e+00       8.10688e-04       6.42931e+02
  4.000      2.75712e+02       3.19535e+00      -3.59042e+00       8.02544e-04       6.35048e+02
  4.100      2.75113e+02       3.07489e+00      -3.73202e+00       7.94408e-04       6.27243e+02
  4.200      2.74523e+02       2.91292e+00      -3.87630e+00       7.86305e-04       6.19515e+02
  4.300      2.73933e+02       2.71980e+00      -4.02072e+00       7.78265e-04       6.11863e+02
  4.400      2.73331e+02       2.51389e+00      -4.16144e+00       7.70327e-04       6.04290e+02
  4.500      2.72704e+02       2.31348e+00      -4.29475e+00       7.62522e-04       5.96796e+02
  4.600      2.72051e+02       2.13147e+00      -4.42068e+00       7.54857e-04       5.89381e+02
  4.700      2.71378e+02       1.97421e+00      -4.54382e+00       7.47304e-04       5.82042e+02
  4.800      2.70696e+02       1.84767e+00      -4.66903e+00       7.39834e-04       5.74775e+02
  4.900      2.70010e+02       1.75639e+00      -4.79901e+00       7.32424e-04       5.67577e+02
  5.000      2.69323e+02       1.69973e+00      -4.92854e+00       7.25071e-04       5.60449e+02
  5.100      2.68634e+02       1.67585e+00      -5.05062e+00       7.17778e-04       5.53392e+02
  5.200      2.67943e+02       1.68287e+00      -5.15838e+00       7.10547e-04       5.46408e+02
  5.300      2.67249e+02       1.71781e+00      -5.24785e+00       7.03381e-04       5.39496e+02
  5.400      2.66546e+02       1.77666e+00      -5.31780e+00       6.96290e-04       5.32654e+02
  5.500      2.65833e+02       1.85538e+00      -5.36714e+00       6.89282e-04       5.25881e+02
  5.600      2.65104e+02       1.95026e+00      -5.39581e+00       6.82364e-04       5.19176e+02
  5.700      2.64361e+02       2.05978e+00      -5.40989e+00       6.75532e-04       5.12536e+02
  5.800      2.63604e+02       2.18316e+00      -5.41772e+00       6.68783e-04       5.05963e+02
  5.900      2.62835e+02       2.31967e+00      -5.42765e+00       6.62113e-04       4.99456e+02
  6.000      2.62056e+02       2.46892e+00      -5.44523e+00       6.55515e-04       4.93014e+02
  6.100      2.61271e+02       2.63173e+00      -5.46729e+00       6.48982e-04       4.86637e+02
  6.200      2.60481e+02       2.80914e+00      -5.48899e+00       6.42504e-04       4.80324e+02
  6.300      2.59691e+02       3.00218e+00      -5.50546e+00       6.36074e-04       4.74074e+02
  6.400      2.58902e+02       3.21202e+00      -5.51185e+00       6.29685e-04       4.67887e+02
  6.500      2.58114e+02       3.44005e+00      -5.50331e+00       6.23340e-04       4.61763e+02
  6.600      2.57326e+02       3.68773e+00      -5.47498e+00       6.17042e-04       4.55701e+02
  6.700      2.56534e+02       3.95652e+00      -5.42202e+00       6.10795e-04       4.49700e+02
  6.800      2.55740e+02       4.24576e+00      -5.34276e+00       6.04600e-04       4.43760e+02
  6.900      2.54942e+02       4.54751e+00      -5.24648e+00       5.98455e-04       4.37880e+02
  7.000      2.54143e+02       4.85227e+00      -5.14484e+00       5.92358e-04       4.32060e+02
  7.100      2.53342e+02       5.15054e+00      -5.04948e+00       5.86306e-04       4.26299e+02
  7.200      2.52541e+02       5.43344e+00      -4.97113e+00       5.80296e-04       4.20595e+02
  7.300      2.51741e+02       5.69704e+00      -4.91289e+00       5.74328e-04       4.14950e+02
  7.400      2.50942e+02       5.93983e+00      -4.87420e+00       5.68398e-04       4.09363e+02
  7.500      2.50145e+02       6.16032e+00      -4.85449e+00       5.62507e-04       4.03833e+02
  7.600      2.49352e+02       6.35701e+00      -4.85319e+00       5.56652e-04       3.98362e+02
  7.700      2.48562e+02       6.52949e+00      -4.87046e+00       5.50832e-04       3.92949e+02
  7.800      2.47777e+02       6.67919e+00      -4.90768e+00       5.45046e-04       3.87593e+02
  7.900      2.46996e+02       6.80768e+00      -4.96636e+00       5.39294e-04       3.82294e+02
  8.000      2.46221e+02       6.91657e+00      -5.04802e+00       5.33572e-04       3.77052e+02
  8.100      2.45453e+02       7.00731e+00      -5.15402e+00       5.27882e-04       3.71866e+02
  8.200      2.44689e+02       7.07940e+00      -5.28396e+00       5.22227e-04       3.66737e+02
  8.300      2.43926e+02       7.13087e+00      -5.43606e+00       5.16612e-04       3.61663e+02
  8.400      2.43160e+02       7.15972e+00      -5.60852e+00       5.11044e-04       3.56643e+02
  8.500      2.42390e+02       7.16392e+00      -5.79952e+00       5.05530e-04       3.51676e+02
  8.600      2.41611e+02       7.14179e+00      -6.00697e+00       5.00074e-04       3.46763e+02
  8.700      2.40823e+02       7.09541e+00      -6.22523e+00       4.94677e-04       3.41903e+02
  8.800      2.40029e+02       7.02935e+00      -6.44638e+00       4.89335e-04       3.37094e+02
  8.900      2.39230e+02       6.94824e+00      -6.66245e+00       4.84043e-04       3.32338e+02
  9.000      2.38427e+02       6.85667e+00      -6.86546e+00       4.78798e-04       3.27634e+02
  9.100      2.37622e+02       6.75921e+00      -7.04755e+00       4.73596e-04       3.22981e+02
  9.200      2.36818e+02       6.65828e+00      -7.20432e+00       4.68434e-04       3.18380e+02
  9.300      2.36015e+02       6.55377e+00      -7.33549e+00       4.63309e-04       3.13829e+02
  9.400      2.35216e+02       6.44544e+00      -7.44101e+00       4.58218e-04       3.09328e+02
  9.500      2.34420e+02       6.33306e+00      -7.52084e+00       4.53156e-04       3.04877e+02
  9.600      2.33631e+02       6.21636e+00      -7.57493e+00       4.48123e-04       3.00475e+02
  9.700      2.32848e+02       6.09576e+00      -7.60353e+00       4.43115e-04       2.96122e+02
  9.800      2.32071e+02       5.97517e+00      -7.60861e+00       4.38136e-04       2.91817e+02
  9.900      2.31298e+02       5.85974e+00      -7.59272e+00       4.33187e-04       2.87560e+02
 10.000      2.30527e+02       5.75461e+00      -7.55838e+00       4.28274e-04       2.83352e+02
 10.100      2.29757e+02       5.66494e+00      -7.50815e+00       4.23399e-04       2.79191e+02
 10.200      2.28986e+02       5.59587e+00      -7.44458e+00       4.18566e-04       2.75078e+02
 10.300      2.28213e+02       5.55290e+00      -7.37031e+00       4.13777e-04       2.71012e+02
 10.400      2.27438e+02       5.54306e+00      -7.28846e+00       4.09030e-04       2.66993e+02
 10.500      2.26664e+02       5.57377e+00      -7.20227e+00       4.04321e-04       2.63021e+02
 10.600      2.25892e+02       5.65245e+00      -7.11496e+00       3.99647e-04       2.59095e+02
 10.700      2.25123e+02       5.78654e+00      -7.02978e+00       3.95005e-04       2.55215e+02
 10.800      2.24360e+02       5.98346e+00      -6.94996e+00       3.90393e-04       2.51379e+02
 10.900      2.23603e+02       6.24945e+00      -6.87842e+00       3.85807e-04       2.47589e+02
 11.000      2.22853e+02       6.57547e+00      -6.81424e+00       3.81248e-04       2.43842e+02
 11.100      2.22109e+02       6.94179e+00      -6.75375e+00       3.76719e-04       2.40141e+02
 11.200      2.21369e+02       7.32850e+00      -6.69324e+00       3.72222e-04       2.36483e+02
 11.300      2.20631e+02       7.71565e+00      -6.62902e+00       3.67758e-04       2.32869e+02
 11.400      2.19896e+02       8.08333e+00      -6.55738e+00       3.63331e-04       2.29299e+02
 11.500      2.19161e+02       8.41160e+00      -6.47460e+00       3.58943e-04       2.25772e+02
 11.600      2.18425e+02       8.68258e+00      -6.37709e+00       3.54595e-04       2.22289e+02
 11.700      2.17687e+02       8.89451e+00      -6.26215e+00       3.50291e-04       2.18848e+02
 11.800      2.16944e+02       9.05329e+00      -6.12745e+00       3.46032e-04       2.15449e+02
 11.900      2.16194e+02       9.16487e+00      -5.97070e+00       3.41822e-04       2.12092e+02
 12.000      2.15435e+02       9.23520e+00      -5.78961e+00       3.37663e-04       2.08776e+02
 12.100      2.14665e+02       9.27024e+00      -5.58187e+00       3.33557e-04       2.05501e+02
 12.200      2.13882e+02       9.27592e+00      -5.34518e+00       3.29507e-04       2.02265e+02
 12.300      2.13084e+02       9.25817e+00      -5.07729e+00       3.25515e-04       1.99069e+02
 12.400      2.12271e+02       9.21986e+00      -4.77990e+00       3.21578e-04       1.95911e+02
 12.500      2.11451e+02       9.15865e+00      -4.46153e+00       3.17685e-04       1.92792e+02
 12.600      2.10633e+02       9.07167e+00      -4.13140e+00       3.13824e-04       1.89711e+02
 12.700      2.09822e+02       8.95604e+00      -3.79872e+00       3.09983e-04       1.86668e+02
 12.800      2.09028e+02       8.80890e+00      -3.47270e+00       3.06151e-04       1.83663e+02
 12.900      2.08257e+02       8.62737e+00      -3.16253e+00       3.02317e-04       1.80694e+02
 13.000      2.07518e+02       8.40859e+00      -2.87743e+00       2.98472e-04       1.77762e+02
 13.100      2.06817e+02       8.14968e+00      -2.62662e+00       2.94604e-04       1.74867e+02
 13.200      2.06163e+02       7.85027e+00      -2.41733e+00       2.90708e-04       1.72008e+02
 13.300      2.05558e+02       7.51870e+00      -2.25003e+00       2.86781e-04       1.69186e+02
 13.400      2.05006e+02       7.16519e+00      -2.12366e+00       2.82823e-04       1.66403e+02
 13.500      2.04509e+02       6.79995e+00      -2.03720e+00       2.78835e-04       1.63659e+02
 13.600      2.04071e+02       6.43322e+00      -1.98961e+00       2.74817e-04       1.60956e+02
 13.700      2.03694e+02       6.07523e+00      -1.97984e+00       2.70770e-04       1.58293e+02
 13.800      2.03383e+02       5.73619e+00      -2.00687e+00       2.66695e-04       1.55672e+02
 13.900      2.03139e+02       5.42633e+00      -2.06966e+00       2.62592e-04       1.53093e+02
 14.000      2.02966e+02       5.15587e+00      -2.16717e+00       2.58462e-04       1.50557e+02
 14.100      2.02865e+02       4.93373e+00      -2.29800e+00       2.54309e-04       1.48065e+02
 14.200      2.02834e+02       4.75841e+00      -2.45789e+00       2.50140e-04       1.45615e+02
 14.300      2.02863e+02       4.62346e+00      -2.64121e+00       2.45966e-04       1.43206e+02
 14.400      2.02946e+02       4.52240e+00      -2.84232e+00       2.41800e-04       1.40837e+02
 14.500      2.03073e+02       4.44873e+00      -3.05558e+00       2.37650e-04       1.38507e+02
 14.600      2.03239e+02       4.39596e+00      -3.27537e+00       2.33527e-04       1.36215e+02
 14.700      2.03435e+02       4.35763e+00      -3.49603e+00       2.29440e-04       1.33960e+02
 14.800      2.03652e+02       4.32723e+00      -3.71193e+00       2.25398e-04       1.31741e+02
 14.900      2.03885e+02       4.29829e+00      -3.91744e+00       2.21407e-04       1.29556e+02
 15.000      2.04124e+02       4.26431e+00      -4.10691e+00       2.17476e-04       1.27405e+02
 15.100      2.04363e+02       4.21881e+00      -4.27472e+00       2.13611e-04       1.25288e+02
 15.200      2.04594e+02       4.15628e+00      -4.41602e+00       2.09818e-04       1.23202e+02
 15.300      2.04815e+02       4.07706e+00      -4.53088e+00       2.06098e-04       1.21149e+02
 15.400      2.05028e+02       3.98368e+00      -4.62122e+00       2.02451e-04       1.19129e+02
 15.500      2.05233e+02       3.87867e+00      -4.68894e+00       1.98878e-04       1.17143e+02
 15.600      2.05430e+02       3.76460e+00      -4.73593e+00       1.95376e-04       1.15191e+02
 15.700      2.05619e+02       3.64399e+00      -4.76412e+00       1.91948e-04       1.13274e+02
 15.800      2.05802e+02       3.51938e+00      -4.77540e+00       1.88591e-04       1.11392e+02
 15.900      2.05978e+02       3.39333e+00      -4.77168e+00       1.85307e-04       1.09546e+02
 16.000      2.06149e+02       3.26836e+00      -4.75487e+00       1.82094e-04       1.07735e+02
 16.100      2.06314e+02       3.14703e+00      -4.72687e+00       1.78951e-04       1.05961e+02
 16.200      2.06473e+02       3.03186e+00      -4.68960e+00       1.75880e-04       1.04223e+02
 16.300      2.06629e+02       2.92541e+00      -4.64495e+00       1.72878e-04       1.02521e+02
 16.400      2.06780e+02       2.83021e+00      -4.59482e+00       1.69946e-04       1.00856e+02
 16.500      2.06927e+02       2.74874e+00      -4.54111e+00       1.67083e-04       9.92273e+01
 16.600      2.07071e+02       2.68184e+00      -4.48486e+00       1.64286e-04       9.76345e+01
 16.700      2.07212e+02       2.62861e+00      -4.42626e+00       1.61553e-04       9.60757e+01
 16.800      2.07350e+02       2.58806e+00      -4.36546e+00       1.58881e-04       9.45495e+01
 16.900      2.07485e+02       2.55921e+00      -4.30261e+00       1.56267e-04       9.30541e+01
 17.000      2.07617e+02       2.54106e+00      -4.23784e+00       1.53707e-04       9.15882e+01
 17.100      2.07746e+02       2.53264e+00      -4.17132e+00       1.51200e-04       9.01502e+01
 17.200      2.07873e+02       2.53296e+00      -4.10319e+00       1.48743e-04       8.87389e+01
 17.300      2.07997e+02       2.54103e+00      -4.03360e+00       1.46332e-04       8.73530e+01
 17.400      2.08118e+02       2.55587e+00      -3.96268e+00       1.43967e-04       8.59913e+01
 17.500      2.08238e+02       2.57650e+00      -3.89059e+00       1.41644e-04       8.46524e+01
 17.600      2.08355e+02       2.60191e+00      -3.81748e+00       1.39362e-04       8.33355e+01
 17.700      2.08470e+02       2.63115e+00      -3.74350e+00       1.37119e-04       8.20393e+01
 17.800      2.08583e+02       2.66320e+00      -3.66878e+00       1.34912e-04       8.07628e+01
 17.900      2.08695e+02       2.69710e+00      -3.59349e+00       1.32740e-04       7.95051e+01
 18.000      2.08804e+02       2.73185e+00      -3.51775e+00       1.30601e-04       7.82652e+01
 18.100      2.08912e+02       2.76647e+00      -3.44173e+00       1.28494e-04       7.70423e+01
 18.200      2.09019e+02       2.79997e+00      -3.36557e+00       1.26417e-04       7.58356e+01
 18.300      2.09125e+02       2.83137e+00      -3.28942e+00       1.24368e-04       7.46442e+01
 18.400      2.09229e+02       2.85968e+00      -3.21342e+00       1.22346e-04       7.34673e+01
 18.500      2.09332e+02       2.88392e+00      -3.13772e+00       1.20350e-04       7.23043e+01
 18.600      2.09434e+02       2.90310e+00      -3.06247e+00       1.18379e-04       7.11545e+01
 18.700      2.09535e+02       2.91624e+00      -2.98781e+00       1.16430e-04       7.00173e+01
 18.800      2.09636e+02       2.92253e+00      -2.91388e+00       1.14505e-04       6.88922e+01
 18.900      2.09736e+02       2.92201e+00      -2.84072e+00       1.12602e-04       6.77795e+01
 19.000      2.09835e+02       2.91488e+00      -2.76835e+00       1.10722e-04       6.66799e+01
 19.100      2.09935e+02       2.90137e+00      -2.69681e+00       1.08867e-04       6.55938e+01
 19.200      2.10034e+02       2.88172e+00      -2.62612e+00       1.07037e-04       6.45215e+01
 19.300      2.10134e+02       2.85613e+00      -2.55630e+00       1.05232e-04       6.34636e+01
 19.400      2.10234e+02       2.82484e+00      -2.48738e+00       1.03453e-04       6.24204e+01
 19.500      2.10335e+02       2.78807e+00      -2.41939e+00       1.01700e-04       6.13923e+01
 19.600      2.10437e+02       2.74605e+00      -2.35235e+00       9.99736e-05       6.03796e+01
 19.700      2.10540e+02       2.69899e+00      -2.28630e+00       9.82746e-05       5.93824e+01
 19.800      2.10644e+02       2.64713e+00      -2.22125e+00       9.66029e-05       5.84012e+01
 19.900      2.10750e+02       2.59068e+00      -2.15723e+00       9.49589e-05       5.74361e+01
 20.000      2.10857e+02       2.52987e+00      -2.09426e+00       9.33427e-05       5.64873e+01
 20.100      2.10967e+02       2.46493e+00      -2.03239e+00       9.17546e-05       5.55550e+01
 20.200      2.11078e+02       2.39607e+00      -1.97162e+00       9.01946e-05       5.46393e+01
 20.300      2.11191e+02       2.32353e+00      -1.91199e+00       8.86630e-05       5.37404e+01
