# Data Source: NASA MERRA (version 2)
# Model Time = 2011-07-13 18:00:00
# Location = [  39.1026,  -84.5123 ]
# Fields = [ Z(km), T(K), U(m/s), V(m/s), R(g/cm3), P(mbar) ]
# Ground Height = 0.165
  0.000      3.02561e+02       5.41918e-01      -3.07139e+00       1.16849e-03       1.01466e+03
  0.100      3.01719e+02       5.94528e-01      -3.27198e+00       1.15847e-03       1.00316e+03
  0.200      3.00896e+02       6.45634e-01      -3.47429e+00       1.14846e-03       9.91781e+02
  0.300      3.00022e+02       7.00677e-01      -3.67210e+00       1.13876e-03       9.80546e+02
  0.400      2.99029e+02       7.63267e-01      -3.85950e+00       1.12963e-03       9.69461e+02
  0.500      2.97939e+02       7.95273e-01      -4.03719e+00       1.12096e-03       9.58512e+02
  0.600      2.96861e+02       7.17256e-01      -4.21250e+00       1.11228e-03       9.47655e+02
  0.700      2.95865e+02       4.96931e-01      -4.39456e+00       1.10332e-03       9.36864e+02
  0.800      2.94921e+02       2.06304e-01      -4.59584e+00       1.09420e-03       9.26154e+02
  0.900      2.93999e+02      -7.80300e-02      -4.82517e+00       1.08505e-03       9.15540e+02
  1.000      2.93124e+02      -3.28226e-01      -5.06884e+00       1.07579e-03       9.05022e+02
  1.100      2.92340e+02      -5.33247e-01      -5.30650e+00       1.06624e-03       8.94595e+02
  1.200      2.91657e+02      -6.82092e-01      -5.54132e+00       1.05639e-03       8.84259e+02
  1.300      2.91054e+02      -7.63777e-01      -5.79883e+00       1.04632e-03       8.74016e+02
  1.400      2.90510e+02      -7.67319e-01      -6.10544e+00       1.03611e-03       8.63869e+02
  1.500      2.90004e+02      -6.81735e-01      -6.48756e+00       1.02584e-03       8.53820e+02
  1.600      2.89512e+02      -4.96494e-01      -6.96856e+00       1.01561e-03       8.43871e+02
  1.700      2.89027e+02      -2.07386e-01      -7.52915e+00       1.00544e-03       8.34023e+02
  1.800      2.88544e+02       1.85144e-01      -8.11863e+00       9.95355e-04       8.24275e+02
  1.900      2.88062e+02       6.80548e-01      -8.68559e+00       9.85349e-04       8.14626e+02
  2.000      2.87579e+02       1.27828e+00      -9.17863e+00       9.75434e-04       8.05076e+02
  2.100      2.87091e+02       1.97716e+00      -9.54747e+00       9.65617e-04       7.95622e+02
  2.200      2.86599e+02       2.75933e+00      -9.77310e+00       9.55900e-04       7.86265e+02
  2.300      2.86100e+02       3.58855e+00      -9.87080e+00       9.46286e-04       7.77003e+02
  2.400      2.85595e+02       4.42764e+00      -9.85761e+00       9.36775e-04       7.67836e+02
  2.500      2.85083e+02       5.23944e+00      -9.75057e+00       9.27367e-04       7.58762e+02
  2.600      2.84564e+02       5.98677e+00      -9.56671e+00       9.18062e-04       7.49780e+02
  2.700      2.84036e+02       6.64241e+00      -9.32304e+00       9.08861e-04       7.40889e+02
  2.800      2.83498e+02       7.21606e+00      -9.03640e+00       8.99767e-04       7.32087e+02
  2.900      2.82949e+02       7.72601e+00      -8.72361e+00       8.90784e-04       7.23373e+02
  3.000      2.82386e+02       8.19054e+00      -8.40151e+00       8.81913e-04       7.14746e+02
  3.100      2.81809e+02       8.62792e+00      -8.08689e+00       8.73159e-04       7.06203e+02
  3.200      2.81214e+02       9.05639e+00      -7.79654e+00       8.64523e-04       6.97743e+02
  3.300      2.80604e+02       9.48742e+00      -7.54165e+00       8.55999e-04       6.89365e+02
  3.400      2.79984e+02       9.92008e+00      -7.32315e+00       8.47570e-04       6.81068e+02
  3.500      2.79361e+02       1.03521e+01      -7.14082e+00       8.39212e-04       6.72853e+02
  3.600      2.78743e+02       1.07811e+01      -6.99449e+00       8.30906e-04       6.64718e+02
  3.700      2.78134e+02       1.12049e+01      -6.88393e+00       8.22633e-04       6.56663e+02
  3.800      2.77543e+02       1.16211e+01      -6.80897e+00       8.14374e-04       6.48688e+02
  3.900      2.76974e+02       1.20255e+01      -6.76871e+00       8.06115e-04       6.40793e+02
  4.000      2.76426e+02       1.24091e+01      -6.76059e+00       7.97861e-04       6.32977e+02
  4.100      2.75898e+02       1.27619e+01      -6.78179e+00       7.89617e-04       6.25241e+02
  4.200      2.75390e+02       1.30743e+01      -6.82950e+00       7.81388e-04       6.17586e+02
  4.300      2.74900e+02       1.33363e+01      -6.90089e+00       7.73181e-04       6.10010e+02
  4.400      2.74426e+02       1.35382e+01      -6.99316e+00       7.64999e-04       6.02516e+02
  4.500      2.73969e+02       1.36711e+01      -7.10327e+00       7.56848e-04       5.95102e+02
  4.600      2.73523e+02       1.37376e+01      -7.22592e+00       7.48737e-04       5.87768e+02
  4.700      2.73086e+02       1.37477e+01      -7.35424e+00       7.40678e-04       5.80512e+02
  4.800      2.72653e+02       1.37117e+01      -7.48137e+00       7.32681e-04       5.73334e+02
  4.900      2.72220e+02       1.36396e+01      -7.60043e+00       7.24757e-04       5.66232e+02
  5.000      2.71782e+02       1.35417e+01      -7.70456e+00       7.16915e-04       5.59204e+02
  5.100      2.71335e+02       1.34282e+01      -7.78689e+00       7.09165e-04       5.52250e+02
  5.200      2.70876e+02       1.33087e+01      -7.84095e+00       7.01517e-04       5.45368e+02
  5.300      2.70402e+02       1.31887e+01      -7.86494e+00       6.93972e-04       5.38559e+02
  5.400      2.69914e+02       1.30708e+01      -7.86001e+00       6.86527e-04       5.31820e+02
  5.500      2.69413e+02       1.29576e+01      -7.82735e+00       6.79182e-04       5.25153e+02
  5.600      2.68898e+02       1.28516e+01      -7.76814e+00       6.71933e-04       5.18556e+02
  5.700      2.68371e+02       1.27555e+01      -7.68359e+00       6.64780e-04       5.12030e+02
  5.800      2.67832e+02       1.26717e+01      -7.57488e+00       6.57719e-04       5.05573e+02
  5.900      2.67280e+02       1.26029e+01      -7.44320e+00       6.50749e-04       4.99185e+02
  6.000      2.66718e+02       1.25502e+01      -7.29082e+00       6.43866e-04       4.92866e+02
  6.100      2.66147e+02       1.25104e+01      -7.12296e+00       6.37062e-04       4.86615e+02
  6.200      2.65571e+02       1.24799e+01      -6.94535e+00       6.30328e-04       4.80429e+02
  6.300      2.64993e+02       1.24549e+01      -6.76369e+00       6.23654e-04       4.74307e+02
  6.400      2.64415e+02       1.24316e+01      -6.58371e+00       6.17032e-04       4.68249e+02
  6.500      2.63842e+02       1.24064e+01      -6.41114e+00       6.10454e-04       4.62252e+02
  6.600      2.63276e+02       1.23753e+01      -6.25168e+00       6.03911e-04       4.56316e+02
  6.700      2.62719e+02       1.23348e+01      -6.11105e+00       5.97396e-04       4.50439e+02
  6.800      2.62175e+02       1.22822e+01      -5.99442e+00       5.90904e-04       4.44621e+02
  6.900      2.61640e+02       1.22203e+01      -5.90409e+00       5.84444e-04       4.38863e+02
  7.000      2.61111e+02       1.21537e+01      -5.84147e+00       5.78029e-04       4.33167e+02
  7.100      2.60583e+02       1.20869e+01      -5.80800e+00       5.71670e-04       4.27537e+02
  7.200      2.60053e+02       1.20246e+01      -5.80509e+00       5.65380e-04       4.21973e+02
  7.300      2.59517e+02       1.19713e+01      -5.83416e+00       5.59170e-04       4.16477e+02
  7.400      2.58971e+02       1.19317e+01      -5.89664e+00       5.53050e-04       4.11052e+02
  7.500      2.58410e+02       1.19102e+01      -5.99394e+00       5.47031e-04       4.05698e+02
  7.600      2.57832e+02       1.19115e+01      -6.12748e+00       5.41123e-04       4.00418e+02
  7.700      2.57232e+02       1.19391e+01      -6.29832e+00       5.35332e-04       3.95212e+02
  7.800      2.56611e+02       1.19905e+01      -6.50560e+00       5.29648e-04       3.90071e+02
  7.900      2.55968e+02       1.20619e+01      -6.74787e+00       5.24056e-04       3.84987e+02
  8.000      2.55306e+02       1.21491e+01      -7.02369e+00       5.18543e-04       3.79951e+02
  8.100      2.54624e+02       1.22479e+01      -7.33159e+00       5.13093e-04       3.74954e+02
  8.200      2.53924e+02       1.23544e+01      -7.67014e+00       5.07696e-04       3.69989e+02
  8.300      2.53206e+02       1.24645e+01      -8.03787e+00       5.02336e-04       3.65048e+02
  8.400      2.52470e+02       1.25740e+01      -8.43334e+00       4.97004e-04       3.60124e+02
  8.500      2.51718e+02       1.26790e+01      -8.85510e+00       4.91686e-04       3.55209e+02
  8.600      2.50951e+02       1.27752e+01      -9.30169e+00       4.86372e-04       3.50299e+02
  8.700      2.50169e+02       1.28597e+01      -9.77070e+00       4.81056e-04       3.45391e+02
  8.800      2.49373e+02       1.29345e+01      -1.02551e+01       4.75760e-04       3.40503e+02
  8.900      2.48567e+02       1.30030e+01      -1.07463e+01       4.70512e-04       3.35658e+02
  9.000      2.47753e+02       1.30686e+01      -1.12360e+01       4.65336e-04       3.30877e+02
  9.100      2.46931e+02       1.31349e+01      -1.17156e+01       4.60259e-04       3.26182e+02
  9.200      2.46105e+02       1.32053e+01      -1.21768e+01       4.55305e-04       3.21591e+02
  9.300      2.45276e+02       1.32833e+01      -1.26110e+01       4.50496e-04       3.17123e+02
  9.400      2.44446e+02       1.33723e+01      -1.30098e+01       4.45854e-04       3.12793e+02
  9.500      2.43618e+02       1.34758e+01      -1.33647e+01       4.41400e-04       3.08620e+02
  9.600      2.42794e+02       1.35973e+01      -1.36673e+01       4.37154e-04       3.04616e+02
  9.700      2.41975e+02       1.37403e+01      -1.39091e+01       4.33135e-04       3.00798e+02
  9.800      2.41163e+02       1.39077e+01      -1.40827e+01       4.29358e-04       2.97175e+02
  9.900      2.40359e+02       1.40995e+01      -1.41894e+01       4.25810e-04       2.93737e+02
 10.000      2.39562e+02       1.43140e+01      -1.42345e+01       4.22463e-04       2.90462e+02
 10.100      2.38772e+02       1.45495e+01      -1.42232e+01       4.19292e-04       2.87330e+02
 10.200      2.37987e+02       1.48045e+01      -1.41609e+01       4.16272e-04       2.84323e+02
 10.300      2.37207e+02       1.50772e+01      -1.40528e+01       4.13379e-04       2.81421e+02
 10.400      2.36431e+02       1.53660e+01      -1.39043e+01       4.10590e-04       2.78609e+02
 10.500      2.35658e+02       1.56693e+01      -1.37205e+01       4.07884e-04       2.75868e+02
 10.600      2.34889e+02       1.59853e+01      -1.35068e+01       4.05236e-04       2.73182e+02
 10.700      2.34122e+02       1.63125e+01      -1.32685e+01       4.02626e-04       2.70537e+02
 10.800      2.33357e+02       1.66491e+01      -1.30109e+01       4.00035e-04       2.67917e+02
 10.900      2.32592e+02       1.69936e+01      -1.27393e+01       3.97440e-04       2.65307e+02
 11.000      2.31828e+02       1.73442e+01      -1.24589e+01       3.94823e-04       2.62694e+02
 11.100      2.31064e+02       1.76994e+01      -1.21751e+01       3.92164e-04       2.60064e+02
 11.200      2.30298e+02       1.80575e+01      -1.18931e+01       3.89445e-04       2.57405e+02
 11.300      2.29531e+02       1.84167e+01      -1.16183e+01       3.86647e-04       2.54705e+02
 11.400      2.28761e+02       1.87756e+01      -1.13558e+01       3.83754e-04       2.51952e+02
 11.500      2.27988e+02       1.91323e+01      -1.11111e+01       3.80749e-04       2.49134e+02
 11.600      2.27213e+02       1.94852e+01      -1.08868e+01       3.77621e-04       2.46246e+02
 11.700      2.26434e+02       1.98322e+01      -1.06816e+01       3.74368e-04       2.43289e+02
 11.800      2.25653e+02       2.01714e+01      -1.04940e+01       3.70993e-04       2.40264e+02
 11.900      2.24871e+02       2.05008e+01      -1.03220e+01       3.67494e-04       2.37173e+02
 12.000      2.24088e+02       2.08184e+01      -1.01640e+01       3.63872e-04       2.34018e+02
 12.100      2.23304e+02       2.11223e+01      -1.00184e+01       3.60129e-04       2.30801e+02
 12.200      2.22521e+02       2.14104e+01      -9.88336e+00       3.56264e-04       2.27523e+02
 12.300      2.21739e+02       2.16807e+01      -9.75719e+00       3.52281e-04       2.24188e+02
 12.400      2.20958e+02       2.19312e+01      -9.63819e+00       3.48179e-04       2.20798e+02
 12.500      2.20180e+02       2.21601e+01      -9.52466e+00       3.43961e-04       2.17355e+02
 12.600      2.19404e+02       2.23652e+01      -9.41486e+00       3.39630e-04       2.13861e+02
 12.700      2.18632e+02       2.25446e+01      -9.30711e+00       3.35187e-04       2.10321e+02
 12.800      2.17863e+02       2.26963e+01      -9.19967e+00       3.30635e-04       2.06735e+02
 12.900      2.17099e+02       2.28184e+01      -9.09085e+00       3.25977e-04       2.03107e+02
 13.000      2.16340e+02       2.29087e+01      -8.97892e+00       3.21215e-04       1.99441e+02
 13.100      2.15587e+02       2.29662e+01      -8.86281e+00       3.16359e-04       1.95742e+02
 13.200      2.14843e+02       2.29912e+01      -8.74301e+00       3.11426e-04       1.92025e+02
 13.300      2.14109e+02       2.29845e+01      -8.62028e+00       3.06437e-04       1.88303e+02
 13.400      2.13388e+02       2.29471e+01      -8.49538e+00       3.01411e-04       1.84591e+02
 13.500      2.12682e+02       2.28796e+01      -8.36905e+00       2.96365e-04       1.80901e+02
 13.600      2.11994e+02       2.27829e+01      -8.24205e+00       2.91318e-04       1.77244e+02
 13.700      2.11325e+02       2.26578e+01      -8.11514e+00       2.86285e-04       1.73633e+02
 13.800      2.10679e+02       2.25051e+01      -7.98906e+00       2.81280e-04       1.70075e+02
 13.900      2.10057e+02       2.23255e+01      -7.86458e+00       2.76319e-04       1.66582e+02
 14.000      2.09461e+02       2.21200e+01      -7.74245e+00       2.71414e-04       1.63162e+02
 14.100      2.08895e+02       2.18892e+01      -7.62341e+00       2.66577e-04       1.59821e+02
 14.200      2.08360e+02       2.16341e+01      -7.50824e+00       2.61820e-04       1.56567e+02
 14.300      2.07859e+02       2.13553e+01      -7.39767e+00       2.57152e-04       1.53405e+02
 14.400      2.07393e+02       2.10537e+01      -7.29246e+00       2.52585e-04       1.50343e+02
 14.500      2.06966e+02       2.07302e+01      -7.19326e+00       2.48123e-04       1.47383e+02
 14.600      2.06575e+02       2.03860e+01      -7.10007e+00       2.43768e-04       1.44523e+02
 14.700      2.06221e+02       2.00222e+01      -7.01268e+00       2.39514e-04       1.41757e+02
 14.800      2.05901e+02       1.96403e+01      -6.93087e+00       2.35357e-04       1.39081e+02
 14.900      2.05614e+02       1.92416e+01      -6.85443e+00       2.31295e-04       1.36490e+02
 15.000      2.05358e+02       1.88273e+01      -6.78313e+00       2.27323e-04       1.33979e+02
 15.100      2.05133e+02       1.83987e+01      -6.71677e+00       2.23438e-04       1.31545e+02
 15.200      2.04937e+02       1.79571e+01      -6.65513e+00       2.19637e-04       1.29184e+02
 15.300      2.04768e+02       1.75039e+01      -6.59799e+00       2.15918e-04       1.26891e+02
 15.400      2.04625e+02       1.70403e+01      -6.54513e+00       2.12277e-04       1.24664e+02
 15.500      2.04507e+02       1.65676e+01      -6.49635e+00       2.08710e-04       1.22499e+02
 15.600      2.04412e+02       1.60871e+01      -6.45143e+00       2.05217e-04       1.20393e+02
 15.700      2.04339e+02       1.56001e+01      -6.41014e+00       2.01794e-04       1.18343e+02
 15.800      2.04286e+02       1.51080e+01      -6.37228e+00       1.98439e-04       1.16345e+02
 15.900      2.04253e+02       1.46119e+01      -6.33763e+00       1.95150e-04       1.14398e+02
 16.000      2.04237e+02       1.41133e+01      -6.30597e+00       1.91924e-04       1.12498e+02
 16.100      2.04237e+02       1.36134e+01      -6.27708e+00       1.88759e-04       1.10643e+02
 16.200      2.04252e+02       1.31134e+01      -6.25076e+00       1.85653e-04       1.08831e+02
 16.300      2.04281e+02       1.26148e+01      -6.22679e+00       1.82605e-04       1.07059e+02
 16.400      2.04322e+02       1.21188e+01      -6.20494e+00       1.79612e-04       1.05325e+02
 16.500      2.04373e+02       1.16266e+01      -6.18501e+00       1.76672e-04       1.03627e+02
 16.600      2.04434e+02       1.11397e+01      -6.16678e+00       1.73785e-04       1.01964e+02
 16.700      2.04502e+02       1.06592e+01      -6.15004e+00       1.70947e-04       1.00333e+02
 16.800      2.04577e+02       1.01865e+01      -6.13453e+00       1.68158e-04       9.87320e+01
 16.900      2.04659e+02       9.72158e+00      -6.11985e+00       1.65416e-04       9.71607e+01
 17.000      2.04747e+02       9.26446e+00      -6.10547e+00       1.62719e-04       9.56176e+01
 17.100      2.04841e+02       8.81490e+00      -6.09090e+00       1.60066e-04       9.41019e+01
 17.200      2.04943e+02       8.37275e+00      -6.07561e+00       1.57455e-04       9.26125e+01
 17.300      2.05051e+02       7.93783e+00      -6.05911e+00       1.54884e-04       9.11485e+01
 17.400      2.05167e+02       7.50997e+00      -6.04087e+00       1.52352e-04       8.97090e+01
 17.500      2.05290e+02       7.08899e+00      -6.02041e+00       1.49857e-04       8.82932e+01
 17.600      2.05421e+02       6.67472e+00      -5.99719e+00       1.47399e-04       8.69003e+01
 17.700      2.05560e+02       6.26699e+00      -5.97071e+00       1.44976e-04       8.55295e+01
 17.800      2.05707e+02       5.86564e+00      -5.94048e+00       1.42587e-04       8.41800e+01
 17.900      2.05862e+02       5.47048e+00      -5.90596e+00       1.40230e-04       8.28512e+01
 18.000      2.06025e+02       5.08134e+00      -5.86666e+00       1.37905e-04       8.15423e+01
 18.100      2.06197e+02       4.69805e+00      -5.82207e+00       1.35611e-04       8.02527e+01
 18.200      2.06378e+02       4.32044e+00      -5.77167e+00       1.33347e-04       7.89818e+01
 18.300      2.06567e+02       3.94835e+00      -5.71496e+00       1.31111e-04       7.77289e+01
 18.400      2.06766e+02       3.58159e+00      -5.65143e+00       1.28903e-04       7.64935e+01
 18.500      2.06975e+02       3.21999e+00      -5.58056e+00       1.26722e-04       7.52751e+01
 18.600      2.07192e+02       2.86338e+00      -5.50185e+00       1.24567e-04       7.40730e+01
 18.700      2.07420e+02       2.51158e+00      -5.41480e+00       1.22438e-04       7.28868e+01
 18.800      2.07657e+02       2.16445e+00      -5.31888e+00       1.20334e-04       7.17161e+01
 18.900      2.07905e+02       1.82177e+00      -5.21359e+00       1.18253e-04       7.05603e+01
 19.000      2.08162e+02       1.48341e+00      -5.09845e+00       1.16197e-04       6.94190e+01
 19.100      2.08430e+02       1.14937e+00      -4.97368e+00       1.14164e-04       6.82921e+01
 19.200      2.08707e+02       8.19816e-01      -4.84015e+00       1.12156e-04       6.71802e+01
 19.300      2.08991e+02       4.94938e-01      -4.69878e+00       1.10175e-04       6.60833e+01
 19.400      2.09282e+02       1.74905e-01      -4.55045e+00       1.08221e-04       6.50019e+01
 19.500      2.09580e+02      -1.40097e-01      -4.39610e+00       1.06296e-04       6.39362e+01
 19.600      2.09882e+02      -4.49889e-01      -4.23662e+00       1.04400e-04       6.28863e+01
 19.700      2.10188e+02      -7.54290e-01      -4.07292e+00       1.02534e-04       6.18525e+01
 19.800      2.10497e+02      -1.05311e+00      -3.90592e+00       1.00699e-04       6.08351e+01
 19.900      2.10809e+02      -1.34619e+00      -3.73651e+00       9.88958e-05       5.98340e+01
 20.000      2.11121e+02      -1.63334e+00      -3.56561e+00       9.71247e-05       5.88495e+01
 20.100      2.11433e+02      -1.91437e+00      -3.39412e+00       9.53863e-05       5.78816e+01
 20.200      2.11744e+02      -2.18912e+00      -3.22295e+00       9.36811e-05       5.69306e+01
 20.300      2.12054e+02      -2.45738e+00      -3.05302e+00       9.20094e-05       5.59963e+01
