# Data Source: NASA MERRA (version 2)
# Model Time = 2011-07-29 18:00:00
# Location = [  39.1026,  -84.5123 ]
# Fields = [ Z(km), T(K), U(m/s), V(m/s), R(g/cm3), P(mbar) ]
# Ground Height = 0.165
  0.000      3.07500e+02       3.96769e+00       1.91430e-01       1.15059e-03       1.01542e+03
  0.100      3.06655e+02       4.16212e+00       2.38496e-01       1.14087e-03       1.00408e+03
  0.200      3.05827e+02       4.35174e+00       2.94375e-01       1.13117e-03       9.92851e+02
  0.300      3.04969e+02       4.54986e+00       3.34710e-01       1.12168e-03       9.81761e+02
  0.400      3.04036e+02       4.76906e+00       3.35687e-01       1.11258e-03       9.70821e+02
  0.500      3.03030e+02       4.98996e+00       2.96751e-01       1.10386e-03       9.60024e+02
  0.600      3.02020e+02       5.14981e+00       2.48884e-01       1.09522e-03       9.49332e+02
  0.700      3.01055e+02       5.21193e+00       2.24552e-01       1.08645e-03       9.38718e+02
  0.800      3.00096e+02       5.23634e+00       2.53675e-01       1.07769e-03       9.28184e+02
  0.900      2.99096e+02       5.29846e+00       3.61032e-01       1.06912e-03       9.17740e+02
  1.000      2.98086e+02       5.42557e+00       5.23111e-01       1.06064e-03       9.07384e+02
  1.100      2.97140e+02       5.61608e+00       6.87787e-01       1.05197e-03       8.97110e+02
  1.200      2.96301e+02       5.85560e+00       8.18543e-01       1.04296e-03       8.86916e+02
  1.300      2.95548e+02       6.10755e+00       9.07318e-01       1.03369e-03       8.76805e+02
  1.400      2.94857e+02       6.33309e+00       9.48985e-01       1.02427e-03       8.66780e+02
  1.500      2.94201e+02       6.49338e+00       9.38416e-01       1.01479e-03       8.56844e+02
  1.600      2.93556e+02       6.54989e+00       8.70550e-01       1.00534e-03       8.47000e+02
  1.700      2.92904e+02       6.48933e+00       7.45182e-01       9.95975e-04       8.37251e+02
  1.800      2.92246e+02       6.34045e+00       5.70214e-01       9.86702e-04       8.27593e+02
  1.900      2.91584e+02       6.13600e+00       3.54315e-01       9.77512e-04       8.18026e+02
  2.000      2.90918e+02       5.90871e+00       1.06158e-01       9.68398e-04       8.08548e+02
  2.100      2.90249e+02       5.69135e+00      -1.65585e-01       9.59354e-04       7.99156e+02
  2.200      2.89580e+02       5.51086e+00      -4.48776e-01       9.50372e-04       7.89850e+02
  2.300      2.88914e+02       5.37658e+00      -7.20678e-01       9.41443e-04       7.80629e+02
  2.400      2.88253e+02       5.29444e+00      -9.56533e-01       9.32556e-04       7.71492e+02
  2.500      2.87601e+02       5.27041e+00      -1.13158e+00       9.23703e-04       7.62439e+02
  2.600      2.86961e+02       5.31043e+00      -1.22108e+00       9.14873e-04       7.53470e+02
  2.700      2.86336e+02       5.41963e+00      -1.20205e+00       9.06058e-04       7.44584e+02
  2.800      2.85727e+02       5.59139e+00      -1.07735e+00       8.97255e-04       7.35782e+02
  2.900      2.85133e+02       5.81028e+00      -8.69106e-01       8.88469e-04       7.27063e+02
  3.000      2.84554e+02       6.06065e+00      -5.99951e-01       8.79703e-04       7.18427e+02
  3.100      2.83990e+02       6.32687e+00      -2.92494e-01       8.70959e-04       7.09875e+02
  3.200      2.83439e+02       6.59330e+00       3.06503e-02       8.62241e-04       7.01407e+02
  3.300      2.82901e+02       6.84552e+00       3.48445e-01       8.53554e-04       6.93023e+02
  3.400      2.82373e+02       7.07730e+00       6.50369e-01       8.44908e-04       6.84723e+02
  3.500      2.81850e+02       7.28573e+00       9.30196e-01       8.36317e-04       6.76505e+02
  3.600      2.81327e+02       7.46792e+00       1.18171e+00       8.27795e-04       6.68370e+02
  3.700      2.80801e+02       7.62099e+00       1.39871e+00       8.19356e-04       6.60318e+02
  3.800      2.80265e+02       7.74204e+00       1.57497e+00       8.11012e-04       6.52346e+02
  3.900      2.79717e+02       7.82869e+00       1.70487e+00       8.02772e-04       6.44457e+02
  4.000      2.79157e+02       7.88362e+00       1.78883e+00       7.94636e-04       6.36648e+02
  4.100      2.78588e+02       7.91251e+00       1.83081e+00       7.86591e-04       6.28918e+02
  4.200      2.78013e+02       7.92105e+00       1.83479e+00       7.78628e-04       6.21266e+02
  4.300      2.77436e+02       7.91496e+00       1.80477e+00       7.70735e-04       6.13692e+02
  4.400      2.76860e+02       7.89993e+00       1.74474e+00       7.62903e-04       6.06194e+02
  4.500      2.76289e+02       7.88168e+00       1.65870e+00       7.55121e-04       5.98772e+02
  4.600      2.75723e+02       7.86682e+00       1.54962e+00       7.47385e-04       5.91424e+02
  4.700      2.75163e+02       7.86424e+00       1.41804e+00       7.39696e-04       5.84151e+02
  4.800      2.74607e+02       7.88317e+00       1.26410e+00       7.32059e-04       5.76952e+02
  4.900      2.74055e+02       7.93284e+00       1.08796e+00       7.24475e-04       5.69827e+02
  5.000      2.73504e+02       8.02247e+00       8.89778e-01       7.16950e-04       5.62775e+02
  5.100      2.72955e+02       8.16129e+00       6.69697e-01       7.09485e-04       5.55796e+02
  5.200      2.72405e+02       8.35852e+00       4.27881e-01       7.02085e-04       5.48890e+02
  5.300      2.71854e+02       8.61803e+00       1.67704e-01       6.94749e-04       5.42057e+02
  5.400      2.71304e+02       8.93048e+00      -9.94642e-02       6.87474e-04       5.35296e+02
  5.500      2.70756e+02       9.28448e+00      -3.61036e-01       6.80256e-04       5.28607e+02
  5.600      2.70214e+02       9.66864e+00      -6.04420e-01       6.73089e-04       5.21990e+02
  5.700      2.69678e+02       1.00716e+01      -8.17029e-01       6.65969e-04       5.15444e+02
  5.800      2.69150e+02       1.04820e+01      -9.86271e-01       6.58893e-04       5.08969e+02
  5.900      2.68633e+02       1.08883e+01      -1.09956e+00       6.51854e-04       5.02565e+02
  6.000      2.68128e+02       1.12797e+01      -1.14487e+00       6.44852e-04       4.96232e+02
  6.100      2.67632e+02       1.16501e+01      -1.11883e+00       6.37892e-04       4.89967e+02
  6.200      2.67137e+02       1.19976e+01      -1.02481e+00       6.30991e-04       4.83770e+02
  6.300      2.66637e+02       1.23204e+01      -8.66334e-01       6.24162e-04       4.77639e+02
  6.400      2.66124e+02       1.26165e+01      -6.46938e-01       6.17421e-04       4.71571e+02
  6.500      2.65591e+02       1.28841e+01      -3.70155e-01       6.10782e-04       4.65565e+02
  6.600      2.65030e+02       1.31214e+01      -3.95199e-02       6.04257e-04       4.59620e+02
  6.700      2.64435e+02       1.33266e+01       3.41435e-01       5.97860e-04       4.53733e+02
  6.800      2.63798e+02       1.34977e+01       7.69086e-01       5.91603e-04       4.47903e+02
  6.900      2.63119e+02       1.36340e+01       1.23527e+00       5.85487e-04       4.42131e+02
  7.000      2.62403e+02       1.37362e+01       1.72531e+00       5.79498e-04       4.36417e+02
  7.100      2.61658e+02       1.38050e+01       2.22400e+00       5.73620e-04       4.30765e+02
  7.200      2.60892e+02       1.38412e+01       2.71615e+00       5.67839e-04       4.25175e+02
  7.300      2.60112e+02       1.38457e+01       3.18658e+00       5.62140e-04       4.19649e+02
  7.400      2.59325e+02       1.38191e+01       3.62007e+00       5.56510e-04       4.14189e+02
  7.500      2.58539e+02       1.37623e+01       4.00144e+00       5.50934e-04       4.08796e+02
  7.600      2.57761e+02       1.36761e+01       4.31549e+00       5.45399e-04       4.03472e+02
  7.700      2.56998e+02       1.35613e+01       4.54722e+00       5.39893e-04       3.98217e+02
  7.800      2.56255e+02       1.34198e+01       4.69260e+00       5.34405e-04       3.93029e+02
  7.900      2.55528e+02       1.32557e+01       4.76421e+00       5.28930e-04       3.87899e+02
  8.000      2.54816e+02       1.30730e+01       4.77605e+00       5.23464e-04       3.82820e+02
  8.100      2.54115e+02       1.28757e+01       4.74214e+00       5.18002e-04       3.77784e+02
  8.200      2.53422e+02       1.26680e+01       4.67645e+00       5.12542e-04       3.72783e+02
  8.300      2.52735e+02       1.24538e+01       4.59299e+00       5.07078e-04       3.67809e+02
  8.400      2.52052e+02       1.22373e+01       4.50575e+00       5.01608e-04       3.62858e+02
  8.500      2.51368e+02       1.20226e+01       4.42873e+00       4.96129e-04       3.57921e+02
  8.600      2.50683e+02       1.18136e+01       4.37593e+00       4.90637e-04       3.52993e+02
  8.700      2.49992e+02       1.16145e+01       4.36116e+00       4.85131e-04       3.48070e+02
  8.800      2.49295e+02       1.14273e+01       4.39076e+00       4.79621e-04       3.43157e+02
  8.900      2.48592e+02       1.12520e+01       4.46118e+00       4.74138e-04       3.38278e+02
  9.000      2.47884e+02       1.10879e+01       4.56816e+00       4.68712e-04       3.33454e+02
  9.100      2.47172e+02       1.09347e+01       4.70746e+00       4.63369e-04       3.28706e+02
  9.200      2.46457e+02       1.07919e+01       4.87483e+00       4.58137e-04       3.24055e+02
  9.300      2.45740e+02       1.06591e+01       5.06603e+00       4.53041e-04       3.19518e+02
  9.400      2.45021e+02       1.05359e+01       5.27681e+00       4.48106e-04       3.15113e+02
  9.500      2.44302e+02       1.04218e+01       5.50293e+00       4.43354e-04       3.10857e+02
  9.600      2.43583e+02       1.03164e+01       5.74013e+00       4.38809e-04       3.06764e+02
  9.700      2.42865e+02       1.02193e+01       5.98418e+00       4.34491e-04       3.02850e+02
  9.800      2.42149e+02       1.01300e+01       6.23082e+00       4.30421e-04       2.99128e+02
  9.900      2.41434e+02       1.00484e+01       6.47673e+00       4.26604e-04       2.95601e+02
 10.000      2.40722e+02       9.97446e+00       6.72036e+00       4.23015e-04       2.92250e+02
 10.100      2.40011e+02       9.90851e+00       6.96038e+00       4.19630e-04       2.89054e+02
 10.200      2.39299e+02       9.85073e+00       7.19546e+00       4.16423e-04       2.85995e+02
 10.300      2.38588e+02       9.80132e+00       7.42428e+00       4.13369e-04       2.83053e+02
 10.400      2.37874e+02       9.76050e+00       7.64550e+00       4.10445e-04       2.80211e+02
 10.500      2.37160e+02       9.72847e+00       7.85779e+00       4.07627e-04       2.77451e+02
 10.600      2.36442e+02       9.70544e+00       8.05984e+00       4.04895e-04       2.74757e+02
 10.700      2.35721e+02       9.69160e+00       8.25031e+00       4.02226e-04       2.72114e+02
 10.800      2.34996e+02       9.68717e+00       8.42787e+00       3.99599e-04       2.69505e+02
 10.900      2.34267e+02       9.69236e+00       8.59119e+00       3.96994e-04       2.66917e+02
 11.000      2.33531e+02       9.70736e+00       8.73895e+00       3.94392e-04       2.64335e+02
 11.100      2.32790e+02       9.73239e+00       8.86981e+00       3.91772e-04       2.61746e+02
 11.200      2.32042e+02       9.76765e+00       8.98246e+00       3.89117e-04       2.59136e+02
 11.300      2.31286e+02       9.81335e+00       9.07555e+00       3.86407e-04       2.56494e+02
 11.400      2.30522e+02       9.86969e+00       9.14776e+00       3.83626e-04       2.53806e+02
 11.500      2.29749e+02       9.93688e+00       9.19777e+00       3.80755e-04       2.51062e+02
 11.600      2.28966e+02       1.00151e+01       9.22440e+00       3.77781e-04       2.48252e+02
 11.700      2.28174e+02       1.01034e+01       9.22870e+00       3.74695e-04       2.45372e+02
 11.800      2.27373e+02       1.02006e+01       9.21331e+00       3.71496e-04       2.42423e+02
 11.900      2.26564e+02       1.03050e+01       9.18094e+00       3.68186e-04       2.39408e+02
 12.000      2.25747e+02       1.04152e+01       9.13427e+00       3.64762e-04       2.36328e+02
 12.100      2.24925e+02       1.05297e+01       9.07600e+00       3.61227e-04       2.33184e+02
 12.200      2.24096e+02       1.06470e+01       9.00883e+00       3.57581e-04       2.29980e+02
 12.300      2.23262e+02       1.07658e+01       8.93544e+00       3.53823e-04       2.26717e+02
 12.400      2.22425e+02       1.08844e+01       8.85853e+00       3.49954e-04       2.23396e+02
 12.500      2.21583e+02       1.10015e+01       8.78080e+00       3.45977e-04       2.20022e+02
 12.600      2.20739e+02       1.11155e+01       8.70493e+00       3.41892e-04       2.16596e+02
 12.700      2.19893e+02       1.12249e+01       8.63363e+00       3.37701e-04       2.13120e+02
 12.800      2.19046e+02       1.13284e+01       8.56958e+00       3.33405e-04       2.09598e+02
 12.900      2.18198e+02       1.14244e+01       8.51547e+00       3.29006e-04       2.06033e+02
 13.000      2.17350e+02       1.15114e+01       8.47401e+00       3.24508e-04       2.02426e+02
 13.100      2.16503e+02       1.15880e+01       8.44784e+00       3.19911e-04       1.98782e+02
 13.200      2.15659e+02       1.16534e+01       8.43714e+00       3.15226e-04       1.95107e+02
 13.300      2.14821e+02       1.17074e+01       8.43825e+00       3.10470e-04       1.91416e+02
 13.400      2.13990e+02       1.17502e+01       8.44717e+00       3.05661e-04       1.87722e+02
 13.500      2.13171e+02       1.17818e+01       8.45992e+00       3.00815e-04       1.84039e+02
 13.600      2.12366e+02       1.18024e+01       8.47249e+00       2.95948e-04       1.80378e+02
 13.700      2.11578e+02       1.18120e+01       8.48091e+00       2.91077e-04       1.76750e+02
 13.800      2.10809e+02       1.18108e+01       8.48117e+00       2.86214e-04       1.73166e+02
 13.900      2.10064e+02       1.17987e+01       8.46929e+00       2.81375e-04       1.69636e+02
 14.000      2.09344e+02       1.17759e+01       8.44127e+00       2.76570e-04       1.66168e+02
 14.100      2.08652e+02       1.17425e+01       8.39312e+00       2.71812e-04       1.62770e+02
 14.200      2.07993e+02       1.16985e+01       8.32085e+00       2.67111e-04       1.59449e+02
 14.300      2.07367e+02       1.16440e+01       8.22046e+00       2.62479e-04       1.56213e+02
 14.400      2.06779e+02       1.15791e+01       8.08797e+00       2.57923e-04       1.53066e+02
 14.500      2.06231e+02       1.15039e+01       7.91937e+00       2.53454e-04       1.50015e+02
 14.600      2.05725e+02       1.14185e+01       7.71188e+00       2.49076e-04       1.47062e+02
 14.700      2.05261e+02       1.13230e+01       7.46758e+00       2.44789e-04       1.44205e+02
 14.800      2.04838e+02       1.12176e+01       7.18976e+00       2.40589e-04       1.41439e+02
 14.900      2.04454e+02       1.11023e+01       6.88175e+00       2.36473e-04       1.38759e+02
 15.000      2.04109e+02       1.09773e+01       6.54684e+00       2.32439e-04       1.36161e+02
 15.100      2.03800e+02       1.08427e+01       6.18835e+00       2.28484e-04       1.33642e+02
 15.200      2.03527e+02       1.06987e+01       5.80960e+00       2.24605e-04       1.31197e+02
 15.300      2.03288e+02       1.05454e+01       5.41387e+00       2.20800e-04       1.28823e+02
 15.400      2.03082e+02       1.03830e+01       5.00449e+00       2.17067e-04       1.26517e+02
 15.500      2.02909e+02       1.02115e+01       4.58476e+00       2.13403e-04       1.24275e+02
 15.600      2.02765e+02       1.00312e+01       4.15800e+00       2.09806e-04       1.22094e+02
 15.700      2.02652e+02       9.84203e+00       3.72751e+00       2.06274e-04       1.19971e+02
 15.800      2.02566e+02       9.64427e+00       3.29661e+00       2.02806e-04       1.17904e+02
 15.900      2.02508e+02       9.43801e+00       2.86859e+00       1.99399e-04       1.15890e+02
 16.000      2.02475e+02       9.22340e+00       2.44677e+00       1.96052e-04       1.13926e+02
 16.100      2.02466e+02       9.00055e+00       2.03447e+00       1.92763e-04       1.12010e+02
 16.200      2.02481e+02       8.76961e+00       1.63498e+00       1.89530e-04       1.10140e+02
 16.300      2.02517e+02       8.53072e+00       1.25162e+00       1.86352e-04       1.08312e+02
 16.400      2.02575e+02       8.28399e+00       8.87696e-01       1.83228e-04       1.06526e+02
 16.500      2.02651e+02       8.02957e+00       5.46515e-01       1.80155e-04       1.04780e+02
 16.600      2.02746e+02       7.76759e+00       2.31390e-01       1.77133e-04       1.03070e+02
 16.700      2.02858e+02       7.49819e+00      -5.43709e-02       1.74160e-04       1.01396e+02
 16.800      2.02986e+02       7.22149e+00      -3.07457e-01       1.71235e-04       9.97563e+01
 16.900      2.03128e+02       6.93775e+00      -5.25847e-01       1.68357e-04       9.81484e+01
 17.000      2.03285e+02       6.64749e+00      -7.10784e-01       1.65524e-04       9.65714e+01
 17.100      2.03455e+02       6.35132e+00      -8.64039e-01       1.62736e-04       9.50242e+01
 17.200      2.03638e+02       6.04981e+00      -9.87380e-01       1.59992e-04       9.35058e+01
 17.300      2.03835e+02       5.74354e+00      -1.08257e+00       1.57289e-04       9.20150e+01
 17.400      2.04044e+02       5.43311e+00      -1.15140e+00       1.54628e-04       9.05510e+01
 17.500      2.04264e+02       5.11909e+00      -1.19561e+00       1.52007e-04       8.91126e+01
 17.600      2.04497e+02       4.80207e+00      -1.21699e+00       1.49426e-04       8.76991e+01
 17.700      2.04741e+02       4.48263e+00      -1.21730e+00       1.46883e-04       8.63094e+01
 17.800      2.04995e+02       4.16137e+00      -1.19832e+00       1.44378e-04       8.49428e+01
 17.900      2.05260e+02       3.83885e+00      -1.16180e+00       1.41910e-04       8.35985e+01
 18.000      2.05534e+02       3.51567e+00      -1.10953e+00       1.39478e-04       8.22756e+01
 18.100      2.05818e+02       3.19242e+00      -1.04326e+00       1.37081e-04       8.09734e+01
 18.200      2.06112e+02       2.86967e+00      -9.64772e-01       1.34718e-04       7.96911e+01
 18.300      2.06413e+02       2.54802e+00      -8.75835e-01       1.32389e-04       7.84282e+01
 18.400      2.06723e+02       2.22804e+00      -7.78213e-01       1.30094e-04       7.71839e+01
 18.500      2.07041e+02       1.91032e+00      -6.73677e-01       1.27830e-04       7.59576e+01
 18.600      2.07366e+02       1.59544e+00      -5.63997e-01       1.25599e-04       7.47487e+01
 18.700      2.07698e+02       1.28400e+00      -4.50942e-01       1.23398e-04       7.35566e+01
 18.800      2.08036e+02       9.76570e-01      -3.36283e-01       1.21228e-04       7.23808e+01
 18.900      2.08380e+02       6.73736e-01      -2.21785e-01       1.19088e-04       7.12207e+01
 19.000      2.08730e+02       3.76084e-01      -1.09220e-01       1.16977e-04       7.00758e+01
 19.100      2.09086e+02       8.40702e-02      -1.43670e-04       1.14895e-04       6.89458e+01
 19.200      2.09445e+02      -2.02489e-01       1.04931e-01       1.12843e-04       6.78308e+01
 19.300      2.09808e+02      -4.83965e-01       2.05809e-01       1.10822e-04       6.67310e+01
 19.400      2.10173e+02      -7.60744e-01       3.02297e-01       1.08831e-04       6.56467e+01
 19.500      2.10540e+02      -1.03320e+00       3.94200e-01       1.06873e-04       6.45781e+01
 19.600      2.10907e+02      -1.30170e+00       4.81323e-01       1.04948e-04       6.35254e+01
 19.700      2.11273e+02      -1.56664e+00       5.63471e-01       1.03056e-04       6.24888e+01
 19.800      2.11639e+02      -1.82837e+00       6.40448e-01       1.01199e-04       6.14683e+01
 19.900      2.12002e+02      -2.08729e+00       7.12063e-01       9.93749e-05       6.04642e+01
 20.000      2.12361e+02      -2.34377e+00       7.78119e-01       9.75859e-05       5.94764e+01
 20.100      2.12717e+02      -2.59818e+00       8.38422e-01       9.58318e-05       5.85051e+01
 20.200      2.13068e+02      -2.85090e+00       8.92776e-01       9.41130e-05       5.75505e+01
 20.300      2.13412e+02      -3.10231e+00       9.40988e-01       9.24296e-05       5.66124e+01
