# Data Source: NASA MERRA (version 2)
# Model Time = 2011-05-09 18:00:00
# Location = [  39.1026,  -84.5123 ]
# Fields = [ Z(km), T(K), U(m/s), V(m/s), R(g/cm3), P(mbar) ]
# Ground Height = 0.165
  0.000      2.96722e+02      -3.82812e+00       1.88569e-01       1.19149e-03       1.01467e+03
  0.100      2.95969e+02      -4.05430e+00       1.77159e-01       1.18077e-03       1.00298e+03
  0.200      2.95244e+02      -4.25933e+00       1.61994e-01       1.17004e-03       9.91438e+02
  0.300      2.94438e+02      -4.52541e+00       1.57665e-01       1.15974e-03       9.80022e+02
  0.400      2.93447e+02      -4.92782e+00       1.78469e-01       1.15025e-03       9.68732e+02
  0.500      2.92310e+02      -5.41797e+00       2.33475e-01       1.14140e-03       9.57555e+02
  0.600      2.91183e+02      -5.84125e+00       3.27232e-01       1.13256e-03       9.46474e+02
  0.700      2.90165e+02      -6.10073e+00       4.63649e-01       1.12333e-03       9.35478e+02
  0.800      2.89255e+02      -6.19799e+00       6.45841e-01       1.11372e-03       9.24567e+02
  0.900      2.88449e+02      -6.13394e+00       8.59628e-01       1.10376e-03       9.13742e+02
  1.000      2.87757e+02      -5.87539e+00       1.02969e+00       1.09342e-03       9.03016e+02
  1.100      2.87193e+02      -5.38812e+00       1.07346e+00       1.08269e-03       8.92399e+02
  1.200      2.86735e+02      -4.70112e+00       9.69667e-01       1.07165e-03       8.81893e+02
  1.300      2.86342e+02      -3.87903e+00       7.31612e-01       1.06047e-03       8.71497e+02
  1.400      2.85973e+02      -2.98687e+00       3.72972e-01       1.04931e-03       8.61210e+02
  1.500      2.85588e+02      -2.08966e+00      -9.25723e-02       1.03830e-03       8.51029e+02
  1.600      2.85155e+02      -1.24406e+00      -6.47728e-01       1.02757e-03       8.40953e+02
  1.700      2.84687e+02      -4.61148e-01      -1.25556e+00       1.01705e-03       8.30982e+02
  1.800      2.84215e+02       2.63416e-01      -1.87249e+00       1.00664e-03       8.21113e+02
  1.900      2.83769e+02       9.33970e-01      -2.45493e+00       9.96228e-04       8.11346e+02
  2.000      2.83379e+02       1.55486e+00      -2.95931e+00       9.85714e-04       8.01679e+02
  2.100      2.83068e+02       2.13140e+00      -3.34890e+00       9.75020e-04       7.92112e+02
  2.200      2.82821e+02       2.67561e+00      -3.63385e+00       9.64209e-04       7.82645e+02
  2.300      2.82603e+02       3.20231e+00      -3.84383e+00       9.53403e-04       7.73278e+02
  2.400      2.82382e+02       3.72633e+00      -4.00859e+00       9.42717e-04       7.64011e+02
  2.500      2.82122e+02       4.26247e+00      -4.15790e+00       9.32261e-04       7.54843e+02
  2.600      2.81793e+02       4.82532e+00      -4.32081e+00       9.22141e-04       7.45776e+02
  2.700      2.81382e+02       5.42262e+00      -4.50799e+00       9.12380e-04       7.36808e+02
  2.800      2.80907e+02       6.05467e+00      -4.71005e+00       9.02920e-04       7.27936e+02
  2.900      2.80381e+02       6.72142e+00      -4.91660e+00       8.93704e-04       7.19158e+02
  3.000      2.79822e+02       7.42279e+00      -5.11722e+00       8.84674e-04       7.10472e+02
  3.100      2.79245e+02       8.15872e+00      -5.30153e+00       8.75774e-04       7.01875e+02
  3.200      2.78665e+02       8.92805e+00      -5.46016e+00       8.66956e-04       6.93364e+02
  3.300      2.78085e+02       9.72096e+00      -5.59202e+00       8.58208e-04       6.84940e+02
  3.400      2.77505e+02       1.05235e+01      -5.69990e+00       8.49533e-04       6.76601e+02
  3.500      2.76921e+02       1.13219e+01      -5.78663e+00       8.40937e-04       6.68345e+02
  3.600      2.76333e+02       1.21020e+01      -5.85503e+00       8.32422e-04       6.60174e+02
  3.700      2.75739e+02       1.28500e+01      -5.90792e+00       8.23994e-04       6.52084e+02
  3.800      2.75137e+02       1.35526e+01      -5.94849e+00       8.15656e-04       6.44077e+02
  3.900      2.74523e+02       1.42013e+01      -5.98331e+00       8.07418e-04       6.36149e+02
  4.000      2.73894e+02       1.47904e+01      -6.02070e+00       7.99290e-04       6.28301e+02
  4.100      2.73243e+02       1.53142e+01      -6.06902e+00       7.91283e-04       6.20531e+02
  4.200      2.72568e+02       1.57672e+01      -6.13661e+00       7.83407e-04       6.12837e+02
  4.300      2.71863e+02       1.61434e+01      -6.23181e+00       7.75673e-04       6.05217e+02
  4.400      2.71125e+02       1.64375e+01      -6.36289e+00       7.68090e-04       5.97672e+02
  4.500      2.70351e+02       1.66525e+01      -6.53197e+00       7.60659e-04       5.90200e+02
  4.600      2.69546e+02       1.68063e+01      -6.73102e+00       7.53364e-04       5.82799e+02
  4.700      2.68714e+02       1.69178e+01      -6.95108e+00       7.46190e-04       5.75469e+02
  4.800      2.67861e+02       1.70061e+01      -7.18315e+00       7.39122e-04       5.68209e+02
  4.900      2.66992e+02       1.70903e+01      -7.41826e+00       7.32145e-04       5.61018e+02
  5.000      2.66110e+02       1.71894e+01      -7.64744e+00       7.25245e-04       5.53895e+02
  5.100      2.65221e+02       1.73220e+01      -7.86190e+00       7.18407e-04       5.46840e+02
  5.200      2.64326e+02       1.74930e+01      -8.05808e+00       7.11626e-04       5.39851e+02
  5.300      2.63425e+02       1.76916e+01      -8.23847e+00       7.04904e-04       5.32928e+02
  5.400      2.62517e+02       1.79062e+01      -8.40585e+00       6.98241e-04       5.26071e+02
  5.500      2.61600e+02       1.81250e+01      -8.56304e+00       6.91642e-04       5.19279e+02
  5.600      2.60674e+02       1.83366e+01      -8.71283e+00       6.85107e-04       5.12552e+02
  5.700      2.59737e+02       1.85292e+01      -8.85802e+00       6.78639e-04       5.05889e+02
  5.800      2.58789e+02       1.86911e+01      -9.00141e+00       6.72240e-04       4.99289e+02
  5.900      2.57830e+02       1.88117e+01      -9.14499e+00       6.65907e-04       4.92752e+02
  6.000      2.56868e+02       1.88825e+01      -9.28843e+00       6.59616e-04       4.86277e+02
  6.100      2.55913e+02       1.88955e+01      -9.43099e+00       6.53346e-04       4.79864e+02
  6.200      2.54974e+02       1.88428e+01      -9.57191e+00       6.47072e-04       4.73511e+02
  6.300      2.54059e+02       1.87166e+01      -9.71045e+00       6.40772e-04       4.67219e+02
  6.400      2.53178e+02       1.85088e+01      -9.84585e+00       6.34423e-04       4.60985e+02
  6.500      2.52339e+02       1.82115e+01      -9.97736e+00       6.28004e-04       4.54810e+02
  6.600      2.51553e+02       1.78168e+01      -1.01042e+01       6.21495e-04       4.48692e+02
  6.700      2.50821e+02       1.73272e+01      -1.02253e+01       6.14891e-04       4.42634e+02
  6.800      2.50135e+02       1.67671e+01      -1.03383e+01       6.08224e-04       4.36636e+02
  6.900      2.49484e+02       1.61637e+01      -1.04409e+01       6.01526e-04       4.30704e+02
  7.000      2.48857e+02       1.55445e+01      -1.05308e+01       5.94832e-04       4.24840e+02
  7.100      2.48243e+02       1.49366e+01      -1.06057e+01       5.88172e-04       4.19048e+02
  7.200      2.47631e+02       1.43675e+01      -1.06633e+01       5.81578e-04       4.13329e+02
  7.300      2.47011e+02       1.38643e+01      -1.07011e+01       5.75080e-04       4.07687e+02
  7.400      2.46372e+02       1.34544e+01      -1.07170e+01       5.68705e-04       4.02124e+02
  7.500      2.45702e+02       1.31632e+01      -1.07091e+01       5.62480e-04       3.96641e+02
  7.600      2.45001e+02       1.29887e+01      -1.06824e+01       5.56399e-04       3.91234e+02
  7.700      2.44273e+02       1.29084e+01      -1.06470e+01       5.50437e-04       3.85891e+02
  7.800      2.43521e+02       1.28998e+01      -1.06133e+01       5.44567e-04       3.80602e+02
  7.900      2.42751e+02       1.29399e+01      -1.05915e+01       5.38766e-04       3.75356e+02
  8.000      2.41967e+02       1.30061e+01      -1.05919e+01       5.33010e-04       3.70146e+02
  8.100      2.41172e+02       1.30754e+01      -1.06248e+01       5.27275e-04       3.64961e+02
  8.200      2.40372e+02       1.31253e+01      -1.07004e+01       5.21540e-04       3.59794e+02
  8.300      2.39571e+02       1.31328e+01      -1.08290e+01       5.15784e-04       3.54636e+02
  8.400      2.38772e+02       1.30752e+01      -1.10209e+01       5.09986e-04       3.49482e+02
  8.500      2.37981e+02       1.29373e+01      -1.12816e+01       5.04141e-04       3.44330e+02
  8.600      2.37197e+02       1.27267e+01      -1.16030e+01       4.98279e-04       3.39206e+02
  8.700      2.36423e+02       1.24548e+01      -1.19741e+01       4.92438e-04       3.34136e+02
  8.800      2.35660e+02       1.21333e+01      -1.23841e+01       4.86654e-04       3.29145e+02
  8.900      2.34907e+02       1.17738e+01      -1.28223e+01       4.80961e-04       3.24256e+02
  9.000      2.34168e+02       1.13880e+01      -1.32777e+01       4.75390e-04       3.19492e+02
  9.100      2.33442e+02       1.09874e+01      -1.37396e+01       4.69974e-04       3.14872e+02
  9.200      2.32731e+02       1.05836e+01      -1.41971e+01       4.64740e-04       3.10417e+02
  9.300      2.32036e+02       1.01882e+01      -1.46393e+01       4.59717e-04       3.06145e+02
  9.400      2.31357e+02       9.81295e+00      -1.50556e+01       4.54931e-04       3.02072e+02
  9.500      2.30697e+02       9.46907e+00      -1.54352e+01       4.50408e-04       2.98215e+02
  9.600      2.30054e+02       9.16157e+00      -1.57736e+01       4.46144e-04       2.94569e+02
  9.700      2.29428e+02       8.88846e+00      -1.60728e+01       4.42111e-04       2.91111e+02
  9.800      2.28816e+02       8.64742e+00      -1.63353e+01       4.38277e-04       2.87818e+02
  9.900      2.28218e+02       8.43611e+00      -1.65634e+01       4.34614e-04       2.84666e+02
 10.000      2.27632e+02       8.25222e+00      -1.67594e+01       4.31093e-04       2.81635e+02
 10.100      2.27056e+02       8.09343e+00      -1.69258e+01       4.27689e-04       2.78704e+02
 10.200      2.26488e+02       7.95739e+00      -1.70648e+01       4.24375e-04       2.75853e+02
 10.300      2.25928e+02       7.84179e+00      -1.71788e+01       4.21125e-04       2.73063e+02
 10.400      2.25374e+02       7.74431e+00      -1.72703e+01       4.17915e-04       2.70317e+02
 10.500      2.24823e+02       7.66261e+00      -1.73415e+01       4.14723e-04       2.67597e+02
 10.600      2.24276e+02       7.59437e+00      -1.73948e+01       4.11524e-04       2.64886e+02
 10.700      2.23729e+02       7.53726e+00      -1.74326e+01       4.08296e-04       2.62168e+02
 10.800      2.23182e+02       7.48897e+00      -1.74573e+01       4.05019e-04       2.59428e+02
 10.900      2.22633e+02       7.44715e+00      -1.74712e+01       4.01671e-04       2.56651e+02
 11.000      2.22081e+02       7.40950e+00      -1.74767e+01       3.98233e-04       2.53823e+02
 11.100      2.21524e+02       7.37367e+00      -1.74761e+01       3.94686e-04       2.50930e+02
 11.200      2.20960e+02       7.33762e+00      -1.74717e+01       3.91011e-04       2.47962e+02
 11.300      2.20393e+02       7.30221e+00      -1.74643e+01       3.87202e-04       2.44916e+02
 11.400      2.19825e+02       7.27011e+00      -1.74537e+01       3.83254e-04       2.41794e+02
 11.500      2.19262e+02       7.24404e+00      -1.74400e+01       3.79164e-04       2.38601e+02
 11.600      2.18707e+02       7.22668e+00      -1.74230e+01       3.74932e-04       2.35341e+02
 11.700      2.18165e+02       7.22073e+00      -1.74026e+01       3.70554e-04       2.32017e+02
 11.800      2.17640e+02       7.22891e+00      -1.73787e+01       3.66029e-04       2.28632e+02
 11.900      2.17136e+02       7.25390e+00      -1.73513e+01       3.61357e-04       2.25191e+02
 12.000      2.16658e+02       7.29841e+00      -1.73202e+01       3.56537e-04       2.21697e+02
 12.100      2.16208e+02       7.36514e+00      -1.72853e+01       3.51569e-04       2.18155e+02
 12.200      2.15793e+02       7.45680e+00      -1.72466e+01       3.46453e-04       2.14567e+02
 12.300      2.15415e+02       7.57607e+00      -1.72039e+01       3.41191e-04       2.10938e+02
 12.400      2.15080e+02       7.72566e+00      -1.71572e+01       3.35784e-04       2.07272e+02
 12.500      2.14790e+02       7.90828e+00      -1.71064e+01       3.30236e-04       2.03573e+02
 12.600      2.14551e+02       8.12662e+00      -1.70513e+01       3.24547e-04       1.99844e+02
 12.700      2.14366e+02       8.38230e+00      -1.69922e+01       3.18730e-04       1.96092e+02
 12.800      2.14228e+02       8.67316e+00      -1.69297e+01       3.12814e-04       1.92329e+02
 12.900      2.14134e+02       8.99618e+00      -1.68651e+01       3.06836e-04       1.88571e+02
 13.000      2.14077e+02       9.34836e+00      -1.67992e+01       3.00828e-04       1.84829e+02
 13.100      2.14052e+02       9.72669e+00      -1.67330e+01       2.94821e-04       1.81117e+02
 13.200      2.14053e+02       1.01281e+01      -1.66677e+01       2.88844e-04       1.77446e+02
 13.300      2.14075e+02       1.05497e+01      -1.66042e+01       2.82923e-04       1.73826e+02
 13.400      2.14112e+02       1.09884e+01      -1.65435e+01       2.77083e-04       1.70268e+02
 13.500      2.14158e+02       1.14412e+01      -1.64867e+01       2.71348e-04       1.66779e+02
 13.600      2.14208e+02       1.19051e+01      -1.64347e+01       2.65737e-04       1.63369e+02
 13.700      2.14256e+02       1.23771e+01      -1.63886e+01       2.60270e-04       1.60044e+02
 13.800      2.14296e+02       1.28542e+01      -1.63493e+01       2.54964e-04       1.56810e+02
 13.900      2.14323e+02       1.33333e+01      -1.63180e+01       2.49834e-04       1.53675e+02
 14.000      2.14331e+02       1.38115e+01      -1.62956e+01       2.44896e-04       1.50643e+02
 14.100      2.14316e+02       1.42859e+01      -1.62829e+01       2.40158e-04       1.47718e+02
 14.200      2.14276e+02       1.47544e+01      -1.62797e+01       2.35617e-04       1.44898e+02
 14.300      2.14214e+02       1.52154e+01      -1.62851e+01       2.31258e-04       1.42176e+02
 14.400      2.14130e+02       1.56673e+01      -1.62982e+01       2.27072e-04       1.39548e+02
 14.500      2.14026e+02       1.61086e+01      -1.63182e+01       2.23046e-04       1.37007e+02
 14.600      2.13904e+02       1.65376e+01      -1.63442e+01       2.19170e-04       1.34549e+02
 14.700      2.13765e+02       1.69527e+01      -1.63752e+01       2.15435e-04       1.32170e+02
 14.800      2.13610e+02       1.73523e+01      -1.64106e+01       2.11830e-04       1.29865e+02
 14.900      2.13442e+02       1.77347e+01      -1.64493e+01       2.08348e-04       1.27630e+02
 15.000      2.13262e+02       1.80985e+01      -1.64905e+01       2.04980e-04       1.25460e+02
 15.100      2.13071e+02       1.84420e+01      -1.65334e+01       2.01718e-04       1.23353e+02
 15.200      2.12871e+02       1.87635e+01      -1.65771e+01       1.98554e-04       1.21304e+02
 15.300      2.12663e+02       1.90615e+01      -1.66207e+01       1.95482e-04       1.19311e+02
 15.400      2.12449e+02       1.93343e+01      -1.66633e+01       1.92494e-04       1.17369e+02
 15.500      2.12230e+02       1.95805e+01      -1.67041e+01       1.89585e-04       1.15476e+02
 15.600      2.12008e+02       1.97982e+01      -1.67421e+01       1.86748e-04       1.13629e+02
 15.700      2.11785e+02       1.99860e+01      -1.67767e+01       1.83977e-04       1.11825e+02
 15.800      2.11561e+02       2.01423e+01      -1.68068e+01       1.81268e-04       1.10062e+02
 15.900      2.11339e+02       2.02654e+01      -1.68316e+01       1.78614e-04       1.08337e+02
 16.000      2.11119e+02       2.03537e+01      -1.68502e+01       1.76011e-04       1.06647e+02
 16.100      2.10904e+02       2.04056e+01      -1.68618e+01       1.73454e-04       1.04991e+02
 16.200      2.10695e+02       2.04195e+01      -1.68655e+01       1.70938e-04       1.03366e+02
 16.300      2.10494e+02       2.03939e+01      -1.68604e+01       1.68460e-04       1.01770e+02
 16.400      2.10302e+02       2.03271e+01      -1.68456e+01       1.66015e-04       1.00201e+02
 16.500      2.10120e+02       2.02178e+01      -1.68205e+01       1.63600e-04       9.86577e+01
 16.600      2.09948e+02       2.00669e+01      -1.67847e+01       1.61212e-04       9.71386e+01
 16.700      2.09788e+02       1.98763e+01      -1.67381e+01       1.58852e-04       9.56432e+01
 16.800      2.09638e+02       1.96475e+01      -1.66808e+01       1.56518e-04       9.41707e+01
 16.900      2.09499e+02       1.93822e+01      -1.66127e+01       1.54209e-04       9.27203e+01
 17.000      2.09372e+02       1.90823e+01      -1.65337e+01       1.51925e-04       9.12915e+01
 17.100      2.09255e+02       1.87492e+01      -1.64438e+01       1.49666e-04       8.98834e+01
 17.200      2.09149e+02       1.83848e+01      -1.63429e+01       1.47429e-04       8.84956e+01
 17.300      2.09054e+02       1.79907e+01      -1.62310e+01       1.45216e-04       8.71273e+01
 17.400      2.08971e+02       1.75687e+01      -1.61080e+01       1.43024e-04       8.57781e+01
 17.500      2.08898e+02       1.71204e+01      -1.59739e+01       1.40854e-04       8.44473e+01
 17.600      2.08837e+02       1.66476e+01      -1.58287e+01       1.38705e-04       8.31344e+01
 17.700      2.08787e+02       1.61518e+01      -1.56722e+01       1.36576e-04       8.18389e+01
 17.800      2.08748e+02       1.56349e+01      -1.55045e+01       1.34467e-04       8.05604e+01
 17.900      2.08721e+02       1.50985e+01      -1.53254e+01       1.32378e-04       7.92983e+01
 18.000      2.08705e+02       1.45443e+01      -1.51350e+01       1.30308e-04       7.80523e+01
 18.100      2.08701e+02       1.39740e+01      -1.49332e+01       1.28256e-04       7.68217e+01
 18.200      2.08708e+02       1.33894e+01      -1.47198e+01       1.26223e-04       7.56064e+01
 18.300      2.08726e+02       1.27920e+01      -1.44950e+01       1.24208e-04       7.44058e+01
 18.400      2.08756e+02       1.21837e+01      -1.42586e+01       1.22210e-04       7.32195e+01
 18.500      2.08798e+02       1.15660e+01      -1.40106e+01       1.20229e-04       7.20474e+01
 18.600      2.08851e+02       1.09407e+01      -1.37509e+01       1.18266e-04       7.08888e+01
 18.700      2.08916e+02       1.03096e+01      -1.34795e+01       1.16319e-04       6.97437e+01
 18.800      2.08993e+02       9.67422e+00      -1.31966e+01       1.14389e-04       6.86118e+01
 18.900      2.09080e+02       9.03654e+00      -1.29032e+01       1.12478e-04       6.74935e+01
 19.000      2.09178e+02       8.39836e+00      -1.26003e+01       1.10586e-04       6.63895e+01
 19.100      2.09285e+02       7.76154e+00      -1.22889e+01       1.08716e-04       6.52999e+01
 19.200      2.09400e+02       7.12791e+00      -1.19699e+01       1.06867e-04       6.42251e+01
 19.300      2.09524e+02       6.49934e+00      -1.16445e+01       1.05042e-04       6.31656e+01
 19.400      2.09655e+02       5.87763e+00      -1.13135e+01       1.03242e-04       6.21216e+01
 19.500      2.09792e+02       5.26466e+00      -1.09781e+01       1.01466e-04       6.10933e+01
 19.600      2.09935e+02       4.66226e+00      -1.06391e+01       9.97173e-05       6.00811e+01
 19.700      2.10083e+02       4.07228e+00      -1.02977e+01       9.79950e-05       5.90850e+01
 19.800      2.10236e+02       3.49657e+00      -9.95474e+00       9.63004e-05       5.81054e+01
 19.900      2.10392e+02       2.93696e+00      -9.61132e+00       9.46341e-05       5.71423e+01
 20.000      2.10551e+02       2.39529e+00      -9.26842e+00       9.29965e-05       5.61960e+01
 20.100      2.10712e+02       1.87343e+00      -8.92705e+00       9.13884e-05       5.52664e+01
 20.200      2.10874e+02       1.37320e+00      -8.58821e+00       8.98100e-05       5.43538e+01
 20.300      2.11037e+02       8.96460e-01      -8.25290e+00       8.82618e-05       5.34581e+01
