# Data Source: NASA GEOS5 Near-Real-Time
# Model Time = 2010-10-05 18:00:00
# Location = [  39.7393, -104.9900 ]
# Fields = [ Z(km), T(K), U(m/s), V(m/s), R(g/cm3), P(mbar) ]
# Ground Height = 1.589
  0.000      3.06754e+02      -1.31569e+00       8.28683e-02       1.15522e-03       1.01704e+03
  0.100      3.06124e+02      -1.32343e+00       1.10479e-01       1.14409e-03       1.00517e+03
  0.200      3.05498e+02      -1.33676e+00       1.45578e-01       1.13306e-03       9.93444e+02
  0.300      3.04867e+02      -1.34296e+00       1.71132e-01       1.12216e-03       9.81853e+02
  0.400      3.04220e+02      -1.32974e+00       1.70389e-01       1.11144e-03       9.70406e+02
  0.500      3.03558e+02      -1.30311e+00       1.37326e-01       1.10088e-03       9.59099e+02
  0.600      3.02900e+02      -1.29255e+00       7.97853e-02       1.09042e-03       9.47927e+02
  0.700      3.02253e+02      -1.31003e+00       1.28202e-02       1.08003e-03       9.36886e+02
  0.800      3.01607e+02      -1.32339e+00      -3.39118e-02       1.06974e-03       9.25982e+02
  0.900      3.00950e+02      -1.30311e+00      -4.02008e-02       1.05962e-03       9.15221e+02
  1.000      3.00284e+02      -1.26613e+00      -4.63583e-02       1.04964e-03       9.04596e+02
  1.100      2.99612e+02      -1.24349e+00      -1.08429e-01       1.03978e-03       8.94096e+02
  1.200      2.98952e+02      -1.24563e+00      -2.11566e-01       1.02998e-03       8.83720e+02
  1.300      2.98330e+02      -1.26557e+00      -2.80967e-01       1.02016e-03       8.73473e+02
  1.400      2.97747e+02      -1.29678e+00      -2.74801e-01       1.01032e-03       8.63357e+02
  1.500      2.97139e+02      -1.33528e+00      -2.40910e-01       1.00068e-03       8.53369e+02
  1.600      2.96435e+02      -1.37769e+00      -2.36854e-01       9.91460e-04       8.43503e+02
  1.700      2.95620e+02      -1.42316e+00      -2.66505e-01       9.82698e-04       8.33749e+02
  1.800      2.94714e+02      -1.47246e+00      -2.98475e-01       9.74306e-04       8.24096e+02
  1.900      2.93746e+02      -1.52764e+00      -3.10928e-01       9.66174e-04       8.14534e+02
  2.000      2.92768e+02      -1.59452e+00      -3.12769e-01       9.58129e-04       8.05062e+02
  2.100      2.91835e+02      -1.67890e+00      -3.18241e-01       9.49988e-04       7.95679e+02
  2.200      2.90979e+02      -1.76585e+00      -3.29071e-01       9.41656e-04       7.86386e+02
  2.300      2.90203e+02      -1.81755e+00      -3.33160e-01       9.33126e-04       7.77185e+02
  2.400      2.89507e+02      -1.79889e+00      -3.18323e-01       9.24409e-04       7.68077e+02
  2.500      2.88853e+02      -1.70716e+00      -2.77704e-01       9.15626e-04       7.59062e+02
  2.600      2.88190e+02      -1.55587e+00      -2.07103e-01       9.06945e-04       7.50139e+02
  2.700      2.87473e+02      -1.35952e+00      -1.03752e-01       8.98504e-04       7.41307e+02
  2.800      2.86696e+02      -1.13628e+00       2.91876e-02       8.90308e-04       7.32562e+02
  2.900      2.85866e+02      -9.05305e-01       1.87003e-01       8.82331e-04       7.23896e+02
  3.000      2.84992e+02      -6.81414e-01       3.63073e-01       8.74536e-04       7.15306e+02
  3.100      2.84097e+02      -4.67664e-01       5.45563e-01       8.66849e-04       7.06792e+02
  3.200      2.83207e+02      -2.65120e-01       7.21774e-01       8.59195e-04       6.98357e+02
  3.300      2.82338e+02      -7.82009e-02       8.84105e-01       8.51527e-04       6.90002e+02
  3.400      2.81486e+02       8.11099e-02       1.03647e+00       8.43858e-04       6.81722e+02
  3.500      2.80640e+02       1.99812e-01       1.18437e+00       8.36212e-04       6.73517e+02
  3.600      2.79795e+02       2.71623e-01       1.33172e+00       8.28609e-04       6.65383e+02
  3.700      2.78945e+02       3.06051e-01       1.47880e+00       8.21064e-04       6.57321e+02
  3.800      2.78086e+02       3.14871e-01       1.62531e+00       8.13591e-04       6.49334e+02
  3.900      2.77215e+02       3.08456e-01       1.77041e+00       8.06203e-04       6.41420e+02
  4.000      2.76325e+02       2.92805e-01       1.91144e+00       7.98913e-04       6.33580e+02
  4.100      2.75412e+02       2.73072e-01       2.04538e+00       7.91733e-04       6.25812e+02
  4.200      2.74474e+02       2.54443e-01       2.17060e+00       7.84669e-04       6.18114e+02
  4.300      2.73517e+02       2.42314e-01       2.29302e+00       7.77694e-04       6.10485e+02
  4.400      2.72555e+02       2.42147e-01       2.42117e+00       7.70772e-04       6.02923e+02
  4.500      2.71599e+02       2.59452e-01       2.56366e+00       7.63867e-04       5.95425e+02
  4.600      2.70657e+02       3.00389e-01       2.73045e+00       7.56958e-04       5.87994e+02
  4.700      2.69736e+02       3.71608e-01       2.93251e+00       7.50033e-04       5.80631e+02
  4.800      2.68839e+02       4.79755e-01       3.18080e+00       7.43082e-04       5.73339e+02
  4.900      2.67973e+02       6.28937e-01       3.48239e+00       7.36096e-04       5.66119e+02
  5.000      2.67137e+02       8.18038e-01       3.83634e+00       7.29073e-04       5.58968e+02
  5.100      2.66332e+02       1.04530e+00       4.24072e+00       7.22011e-04       5.51886e+02
  5.200      2.65558e+02       1.30831e+00       4.69282e+00       7.14909e-04       5.44869e+02
  5.300      2.64813e+02       1.59869e+00       5.18281e+00       7.07776e-04       5.37919e+02
  5.400      2.64095e+02       1.90481e+00       5.69701e+00       7.00620e-04       5.31038e+02
  5.500      2.63402e+02       2.21502e+00       6.22169e+00       6.93454e-04       5.24226e+02
  5.600      2.62730e+02       2.51921e+00       6.74160e+00       6.86289e-04       5.17486e+02
  5.700      2.62070e+02       2.81169e+00       7.23719e+00       6.79149e-04       5.10816e+02
  5.800      2.61415e+02       3.08757e+00       7.68814e+00       6.72054e-04       5.04216e+02
  5.900      2.60757e+02       3.34202e+00       8.07429e+00       6.65025e-04       4.97686e+02
  6.000      2.60093e+02       3.57577e+00       8.38313e+00       6.58067e-04       4.91225e+02
  6.100      2.59432e+02       3.79755e+00       8.61342e+00       6.51157e-04       4.84831e+02
  6.200      2.58782e+02       4.01676e+00       8.76479e+00       6.44275e-04       4.78505e+02
  6.300      2.58152e+02       4.24254e+00       8.83692e+00       6.37397e-04       4.72246e+02
  6.400      2.57546e+02       4.47683e+00       8.83068e+00       6.30520e-04       4.66053e+02
  6.500      2.56959e+02       4.71321e+00       8.74842e+00       6.23653e-04       4.59927e+02
  6.600      2.56387e+02       4.94473e+00       8.59254e+00       6.16809e-04       4.53867e+02
  6.700      2.55827e+02       5.16458e+00       8.36561e+00       6.09997e-04       4.47874e+02
  6.800      2.55275e+02       5.36994e+00       8.07962e+00       6.03226e-04       4.41947e+02
  6.900      2.54731e+02       5.56393e+00       7.76020e+00       5.96498e-04       4.36086e+02
  7.000      2.54192e+02       5.75013e+00       7.43409e+00       5.89819e-04       4.30291e+02
  7.100      2.53658e+02       5.93210e+00       7.12802e+00       5.83189e-04       4.24561e+02
  7.200      2.53126e+02       6.11046e+00       6.86246e+00       5.76614e-04       4.18895e+02
  7.300      2.52590e+02       6.27632e+00       6.63797e+00       5.70110e-04       4.13292e+02
  7.400      2.52042e+02       6.41895e+00       6.45119e+00       5.63692e-04       4.07752e+02
  7.500      2.51474e+02       6.52760e+00       6.29872e+00       5.57374e-04       4.02274e+02
  7.600      2.50880e+02       6.59257e+00       6.17706e+00       5.51171e-04       3.96857e+02
  7.700      2.50257e+02       6.62122e+00       6.08040e+00       5.45084e-04       3.91500e+02
  7.800      2.49608e+02       6.63469e+00       6.00107e+00       5.39106e-04       3.86201e+02
  7.900      2.48936e+02       6.65447e+00       5.93136e+00       5.33227e-04       3.80962e+02
  8.000      2.48243e+02       6.70210e+00       5.86357e+00       5.27441e-04       3.75779e+02
  8.100      2.47532e+02       6.79644e+00       5.79029e+00       5.21740e-04       3.70654e+02
  8.200      2.46803e+02       6.93957e+00       5.70614e+00       5.16124e-04       3.65583e+02
  8.300      2.46053e+02       7.12705e+00       5.60653e+00       5.10594e-04       3.60568e+02
  8.400      2.45282e+02       7.35438e+00       5.48688e+00       5.05151e-04       3.55606e+02
  8.500      2.44488e+02       7.61709e+00       5.34258e+00       4.99795e-04       3.50695e+02
  8.600      2.43669e+02       7.91011e+00       5.17073e+00       4.94525e-04       3.45837e+02
  8.700      2.42832e+02       8.22479e+00       4.97886e+00       4.89332e-04       3.41029e+02
  8.800      2.41982e+02       8.55109e+00       4.77847e+00       4.84199e-04       3.36271e+02
  8.900      2.41129e+02       8.87899e+00       4.58105e+00       4.79112e-04       3.31564e+02
  9.000      2.40277e+02       9.19845e+00       4.39810e+00       4.74057e-04       3.26908e+02
  9.100      2.39435e+02       9.49985e+00       4.24091e+00       4.69020e-04       3.22301e+02
  9.200      2.38603e+02       9.78002e+00       4.11721e+00       4.64002e-04       3.17744e+02
  9.300      2.37776e+02       1.00410e+01       4.03195e+00       4.59009e-04       3.13237e+02
  9.400      2.36950e+02       1.02848e+01       3.99000e+00       4.54053e-04       3.08777e+02
  9.500      2.36120e+02       1.05136e+01       3.99622e+00       4.49140e-04       3.04366e+02
  9.600      2.35281e+02       1.07295e+01       4.05547e+00       4.44279e-04       3.00002e+02
  9.700      2.34430e+02       1.09343e+01       4.17135e+00       4.39474e-04       2.95685e+02
  9.800      2.33575e+02       1.11283e+01       4.34236e+00       4.34712e-04       2.91414e+02
  9.900      2.32725e+02       1.13115e+01       4.56573e+00       4.29978e-04       2.87191e+02
 10.000      2.31887e+02       1.14839e+01       4.83868e+00       4.25255e-04       2.83014e+02
 10.100      2.31072e+02       1.16455e+01       5.15844e+00       4.20527e-04       2.78884e+02
 10.200      2.30288e+02       1.17962e+01       5.52224e+00       4.15779e-04       2.74800e+02
 10.300      2.29541e+02       1.19354e+01       5.92511e+00       4.11002e-04       2.70762e+02
 10.400      2.28830e+02       1.20604e+01       6.35442e+00       4.06203e-04       2.66771e+02
 10.500      2.28149e+02       1.21678e+01       6.79594e+00       4.01391e-04       2.62826e+02
 10.600      2.27495e+02       1.22545e+01       7.23543e+00       3.96575e-04       2.58928e+02
 10.700      2.26863e+02       1.23172e+01       7.65863e+00       3.91766e-04       2.55077e+02
 10.800      2.26249e+02       1.23527e+01       8.05131e+00       3.86971e-04       2.51274e+02
 10.900      2.25649e+02       1.23578e+01       8.40031e+00       3.82200e-04       2.47518e+02
 11.000      2.25064e+02       1.23307e+01       8.70552e+00       3.77453e-04       2.43809e+02
 11.100      2.24494e+02       1.22701e+01       8.97533e+00       3.72726e-04       2.40147e+02
 11.200      2.23943e+02       1.21748e+01       9.21827e+00       3.68018e-04       2.36531e+02
 11.300      2.23412e+02       1.20436e+01       9.44286e+00       3.63325e-04       2.32961e+02
 11.400      2.22904e+02       1.18754e+01       9.65765e+00       3.58643e-04       2.29437e+02
 11.500      2.22422e+02       1.16690e+01       9.87116e+00       3.53971e-04       2.25958e+02
 11.600      2.21966e+02       1.14240e+01       1.00914e+01       3.49307e-04       2.22524e+02
 11.700      2.21537e+02       1.11481e+01       1.03209e+01       3.44653e-04       2.19134e+02
 11.800      2.21132e+02       1.08532e+01       1.05593e+01       3.40016e-04       2.15790e+02
 11.900      2.20747e+02       1.05513e+01       1.08064e+01       3.35401e-04       2.12491e+02
 12.000      2.20380e+02       1.02545e+01       1.10616e+01       3.30814e-04       2.09237e+02
 12.100      2.20029e+02       9.97485e+00       1.13246e+01       3.26260e-04       2.06028e+02
 12.200      2.19691e+02       9.72433e+00       1.15950e+01       3.21745e-04       2.02865e+02
 12.300      2.19364e+02       9.51501e+00       1.18724e+01       3.17273e-04       1.99747e+02
 12.400      2.19044e+02       9.35469e+00       1.21537e+01       3.12847e-04       1.96673e+02
 12.500      2.18729e+02       9.23804e+00       1.24274e+01       3.08472e-04       1.93644e+02
 12.600      2.18416e+02       9.15711e+00       1.26804e+01       3.04150e-04       1.90658e+02
 12.700      2.18103e+02       9.10399e+00       1.28995e+01       2.99883e-04       1.87713e+02
 12.800      2.17786e+02       9.07073e+00       1.30715e+01       2.95674e-04       1.84810e+02
 12.900      2.17464e+02       9.04941e+00       1.31833e+01       2.91525e-04       1.81947e+02
 13.000      2.17134e+02       9.03208e+00       1.32218e+01       2.87438e-04       1.79124e+02
 13.100      2.16792e+02       9.01084e+00       1.31736e+01       2.83415e-04       1.76339e+02
 13.200      2.16437e+02       8.97790e+00       1.30265e+01       2.79457e-04       1.73591e+02
 13.300      2.16067e+02       8.92922e+00       1.27821e+01       2.75565e-04       1.70881e+02
 13.400      2.15684e+02       8.86427e+00       1.24563e+01       2.71737e-04       1.68208e+02
 13.500      2.15288e+02       8.78271e+00       1.20652e+01       2.67969e-04       1.65572e+02
 13.600      2.14882e+02       8.68416e+00       1.16251e+01       2.64261e-04       1.62973e+02
 13.700      2.14467e+02       8.56827e+00       1.11523e+01       2.60610e-04       1.60410e+02
 13.800      2.14043e+02       8.43468e+00       1.06630e+01       2.57013e-04       1.57884e+02
 13.900      2.13611e+02       8.28302e+00       1.01734e+01       2.53470e-04       1.55394e+02
 14.000      2.13175e+02       8.11293e+00       9.69983e+00       2.49978e-04       1.52939e+02
 14.100      2.12733e+02       7.92405e+00       9.25851e+00       2.46535e-04       1.50521e+02
 14.200      2.12288e+02       7.71620e+00       8.86407e+00       2.43140e-04       1.48138e+02
 14.300      2.11843e+02       7.49065e+00       8.51837e+00       2.39789e-04       1.45789e+02
 14.400      2.11400e+02       7.24935e+00       8.21734e+00       2.36474e-04       1.43473e+02
 14.500      2.10963e+02       6.99424e+00       7.95682e+00       2.33193e-04       1.41190e+02
 14.600      2.10534e+02       6.72729e+00       7.73268e+00       2.29940e-04       1.38937e+02
 14.700      2.10117e+02       6.45043e+00       7.54080e+00       2.26710e-04       1.36714e+02
 14.800      2.09714e+02       6.16562e+00       7.37703e+00       2.23499e-04       1.34520e+02
 14.900      2.09329e+02       5.87482e+00       7.23724e+00       2.20304e-04       1.32353e+02
 15.000      2.08965e+02       5.57997e+00       7.11729e+00       2.17119e-04       1.30213e+02
 15.100      2.08625e+02       5.28303e+00       7.01305e+00       2.13942e-04       1.28099e+02
 15.200      2.08313e+02       4.98594e+00       6.92038e+00       2.10768e-04       1.26009e+02
 15.300      2.08030e+02       4.69062e+00       6.83522e+00       2.07596e-04       1.23944e+02
 15.400      2.07777e+02       4.39826e+00       6.75502e+00       2.04427e-04       1.21904e+02
 15.500      2.07554e+02       4.10934e+00       6.67871e+00       2.01265e-04       1.19890e+02
 15.600      2.07358e+02       3.82431e+00       6.60529e+00       1.98117e-04       1.17903e+02
 15.700      2.07188e+02       3.54364e+00       6.53373e+00       1.94989e-04       1.15946e+02
 15.800      2.07042e+02       3.26776e+00       6.46302e+00       1.91883e-04       1.14019e+02
 15.900      2.06918e+02       2.99713e+00       6.39216e+00       1.88807e-04       1.12124e+02
 16.000      2.06814e+02       2.73220e+00       6.32013e+00       1.85763e-04       1.10261e+02
 16.100      2.06730e+02       2.47342e+00       6.24593e+00       1.82756e-04       1.08432e+02
 16.200      2.06663e+02       2.22126e+00       6.16853e+00       1.79789e-04       1.06637e+02
 16.300      2.06611e+02       1.97615e+00       6.08693e+00       1.76867e-04       1.04878e+02
 16.400      2.06573e+02       1.73856e+00       6.00012e+00       1.73992e-04       1.03154e+02
 16.500      2.06548e+02       1.50892e+00       5.90708e+00       1.71168e-04       1.01467e+02
 16.600      2.06533e+02       1.28771e+00       5.80681e+00       1.68398e-04       9.98175e+01
 16.700      2.06527e+02       1.07524e+00       5.69868e+00       1.65682e-04       9.82049e+01
 16.800      2.06530e+02       8.71543e-01       5.58322e+00       1.63019e-04       9.66279e+01
 16.900      2.06542e+02       6.76543e-01       5.46115e+00       1.60406e-04       9.50847e+01
 17.000      2.06563e+02       4.90195e-01       5.33319e+00       1.57841e-04       9.35737e+01
 17.100      2.06593e+02       3.12446e-01       5.20007e+00       1.55321e-04       9.20933e+01
 17.200      2.06631e+02       1.43242e-01       5.06251e+00       1.52845e-04       9.06419e+01
 17.300      2.06679e+02      -1.74675e-02       4.92123e+00       1.50409e-04       8.92183e+01
 17.400      2.06736e+02      -1.69742e-01       4.77695e+00       1.48013e-04       8.78208e+01
 17.500      2.06802e+02      -3.13631e-01       4.63039e+00       1.45653e-04       8.64484e+01
 17.600      2.06877e+02      -4.49189e-01       4.48229e+00       1.43329e-04       8.50996e+01
 17.700      2.06960e+02      -5.76469e-01       4.33336e+00       1.41038e-04       8.37734e+01
 17.800      2.07053e+02      -6.95522e-01       4.18433e+00       1.38779e-04       8.24685e+01
 17.900      2.07154e+02      -8.06406e-01       4.03591e+00       1.36551e-04       8.11839e+01
 18.000      2.07265e+02      -9.09173e-01       3.88883e+00       1.34351e-04       7.99186e+01
 18.100      2.07384e+02      -1.00387e+00       3.74381e+00       1.32178e-04       7.86715e+01
 18.200      2.07512e+02      -1.09056e+00       3.60158e+00       1.30032e-04       7.74418e+01
 18.300      2.07649e+02      -1.16930e+00       3.46285e+00       1.27910e-04       7.62285e+01
 18.400      2.07795e+02      -1.24013e+00       3.32836e+00       1.25812e-04       7.50308e+01
 18.500      2.07950e+02      -1.30310e+00       3.19882e+00       1.23736e-04       7.38478e+01
 18.600      2.08114e+02      -1.35828e+00       3.07496e+00       1.21682e-04       7.26790e+01
 18.700      2.08287e+02      -1.40572e+00       2.95749e+00       1.19648e-04       7.15234e+01
 18.800      2.08468e+02      -1.44547e+00       2.84715e+00       1.17633e-04       7.03805e+01
 18.900      2.08659e+02      -1.47758e+00       2.74461e+00       1.15638e-04       6.92496e+01
 19.000      2.08857e+02      -1.50222e+00       2.65005e+00       1.13661e-04       6.81309e+01
 19.100      2.09064e+02      -1.51960e+00       2.56333e+00       1.11706e-04       6.70250e+01
 19.200      2.09277e+02      -1.52993e+00       2.48430e+00       1.09773e-04       6.59324e+01
 19.300      2.09497e+02      -1.53342e+00       2.41282e+00       1.07864e-04       6.48536e+01
 19.400      2.09722e+02      -1.53030e+00       2.34873e+00       1.05979e-04       6.37891e+01
 19.500      2.09951e+02      -1.52077e+00       2.29189e+00       1.04121e-04       6.27392e+01
 19.600      2.10185e+02      -1.50505e+00       2.24215e+00       1.02290e-04       6.17045e+01
 19.700      2.10422e+02      -1.48335e+00       2.19936e+00       1.00487e-04       6.06851e+01
 19.800      2.10661e+02      -1.45589e+00       2.16338e+00       9.87131e-05       5.96816e+01
 19.900      2.10902e+02      -1.42289e+00       2.13405e+00       9.69687e-05       5.86940e+01
 20.000      2.11144e+02      -1.38454e+00       2.11123e+00       9.52548e-05       5.77228e+01
 20.100      2.11386e+02      -1.34108e+00       2.09477e+00       9.35719e-05       5.67681e+01
 20.200      2.11628e+02      -1.29271e+00       2.08452e+00       9.19206e-05       5.58301e+01
 20.300      2.11869e+02      -1.23966e+00       2.08034e+00       9.03013e-05       5.49089e+01
