# Data Source: NASA MERRA (version 2)
# Model Time = 2011-02-17 18:00:00
# Location = [  39.1026,  -84.5123 ]
# Fields = [ Z(km), T(K), U(m/s), V(m/s), R(g/cm3), P(mbar) ]
# Ground Height = 0.165
  0.000      2.90041e+02       2.84330e+00       7.60106e+00       1.21866e-03       1.01443e+03
  0.100      2.89464e+02       3.22613e+00       8.16019e+00       1.20680e-03       1.00256e+03
  0.200      2.88901e+02       3.54240e+00       8.61835e+00       1.19500e-03       9.90835e+02
  0.300      2.88289e+02       4.09817e+00       9.43980e+00       1.18352e-03       9.79234e+02
  0.400      2.87570e+02       5.16632e+00       1.10344e+01       1.17256e-03       9.67747e+02
  0.500      2.86749e+02       6.58158e+00       1.30942e+01       1.16209e-03       9.56365e+02
  0.600      2.85875e+02       7.87884e+00       1.48200e+01       1.15190e-03       9.45085e+02
  0.700      2.84977e+02       8.89223e+00       1.59018e+01       1.14185e-03       9.33903e+02
  0.800      2.84062e+02       9.81607e+00       1.66192e+01       1.13194e-03       9.22818e+02
  0.900      2.83117e+02       1.07674e+01       1.71933e+01       1.12218e-03       9.11827e+02
  1.000      2.82105e+02       1.16429e+01       1.76386e+01       1.11275e-03       9.00927e+02
  1.100      2.81009e+02       1.23349e+01       1.79439e+01       1.10369e-03       8.90120e+02
  1.200      2.79946e+02       1.28689e+01       1.81117e+01       1.09455e-03       8.79408e+02
  1.300      2.79076e+02       1.33130e+01       1.81490e+01       1.08471e-03       8.68799e+02
  1.400      2.78561e+02       1.37354e+01       1.80625e+01       1.07358e-03       8.58297e+02
  1.500      2.78560e+02       1.42041e+01       1.78593e+01       1.06059e-03       8.47908e+02
  1.600      2.79122e+02       1.47531e+01       1.75460e+01       1.04563e-03       8.37638e+02
  1.700      2.80049e+02       1.53404e+01       1.71288e+01       1.02955e-03       8.27493e+02
  1.800      2.81107e+02       1.59139e+01       1.66139e+01       1.01326e-03       8.17479e+02
  1.900      2.82065e+02       1.64215e+01       1.60073e+01       9.97621e-04       8.07602e+02
  2.000      2.82692e+02       1.68111e+01       1.53154e+01       9.83413e-04       7.97868e+02
  2.100      2.82855e+02       1.70584e+01       1.45508e+01       9.71031e-04       7.88277e+02
  2.200      2.82636e+02       1.71967e+01       1.37406e+01       9.60120e-04       7.78815e+02
  2.300      2.82142e+02       1.72665e+01       1.29134e+01       9.50262e-04       7.69471e+02
  2.400      2.81480e+02       1.73086e+01       1.20980e+01       9.41056e-04       7.60230e+02
  2.500      2.80758e+02       1.73636e+01       1.13230e+01       9.32120e-04       7.51081e+02
  2.600      2.80071e+02       1.74670e+01       1.06115e+01       9.23128e-04       7.42013e+02
  2.700      2.79435e+02       1.76246e+01       9.95445e+00       9.14024e-04       7.33027e+02
  2.800      2.78841e+02       1.78318e+01       9.33155e+00       9.04847e-04       7.24125e+02
  2.900      2.78279e+02       1.80839e+01       8.72232e+00       8.95638e-04       7.15310e+02
  3.000      2.77739e+02       1.83761e+01       8.10634e+00       8.86433e-04       7.06585e+02
  3.100      2.77211e+02       1.87038e+01       7.46325e+00       8.77268e-04       6.97951e+02
  3.200      2.76685e+02       1.90608e+01       6.78346e+00       8.68181e-04       6.89409e+02
  3.300      2.76146e+02       1.94380e+01       6.07893e+00       8.59211e-04       6.80958e+02
  3.400      2.75581e+02       1.98259e+01       5.36421e+00       8.50399e-04       6.72595e+02
  3.500      2.74976e+02       2.02150e+01       4.65383e+00       8.41782e-04       6.64318e+02
  3.600      2.74317e+02       2.05957e+01       3.96234e+00       8.33397e-04       6.56124e+02
  3.700      2.73590e+02       2.09587e+01       3.30423e+00       8.25279e-04       6.48013e+02
  3.800      2.72793e+02       2.13004e+01       2.68992e+00       8.17433e-04       6.39980e+02
  3.900      2.71942e+02       2.16291e+01       2.12169e+00       8.09799e-04       6.32026e+02
  4.000      2.71057e+02       2.19540e+01       1.60090e+00       8.02316e-04       6.24149e+02
  4.100      2.70159e+02       2.22848e+01       1.12893e+00       7.94921e-04       6.16347e+02
  4.200      2.69267e+02       2.26310e+01       7.07117e-01       7.87554e-04       6.08618e+02
  4.300      2.68401e+02       2.30020e+01       3.36837e-01       7.80157e-04       6.00962e+02
  4.400      2.67578e+02       2.34050e+01       1.79759e-02       7.72680e-04       5.93378e+02
  4.500      2.66801e+02       2.38341e+01      -2.58215e-01       7.65119e-04       5.85865e+02
  4.600      2.66067e+02       2.42786e+01      -5.03623e-01       7.57487e-04       5.78425e+02
  4.700      2.65373e+02       2.47277e+01      -7.30138e-01       7.49795e-04       5.71060e+02
  4.800      2.64718e+02       2.51706e+01      -9.49651e-01       7.42056e-04       5.63770e+02
  4.900      2.64098e+02       2.55966e+01      -1.17405e+00       7.34282e-04       5.56557e+02
  5.000      2.63510e+02       2.59950e+01      -1.41523e+00       7.26483e-04       5.49421e+02
  5.100      2.62951e+02       2.63570e+01      -1.68158e+00       7.18675e-04       5.42362e+02
  5.200      2.62410e+02       2.66804e+01      -1.97056e+00       7.10886e-04       5.35380e+02
  5.300      2.61878e+02       2.69641e+01      -2.27748e+00       7.03143e-04       5.28475e+02
  5.400      2.61343e+02       2.72071e+01      -2.59764e+00       6.95476e-04       5.21644e+02
  5.500      2.60794e+02       2.74085e+01      -2.92634e+00       6.87910e-04       5.14887e+02
  5.600      2.60222e+02       2.75671e+01      -3.25891e+00       6.80472e-04       5.08203e+02
  5.700      2.59616e+02       2.76821e+01      -3.59065e+00       6.73188e-04       5.01591e+02
  5.800      2.58966e+02       2.77529e+01      -3.91727e+00       6.66077e-04       4.95050e+02
  5.900      2.58274e+02       2.77851e+01      -4.23794e+00       6.59132e-04       4.88578e+02
  6.000      2.57545e+02       2.77869e+01      -4.55354e+00       6.52332e-04       4.82174e+02
  6.100      2.56787e+02       2.77666e+01      -4.86498e+00       6.45656e-04       4.75834e+02
  6.200      2.56006e+02       2.77326e+01      -5.17318e+00       6.39083e-04       4.69558e+02
  6.300      2.55208e+02       2.76930e+01      -5.47903e+00       6.32595e-04       4.63343e+02
  6.400      2.54400e+02       2.76562e+01      -5.78346e+00       6.26173e-04       4.57187e+02
  6.500      2.53589e+02       2.76306e+01      -6.08735e+00       6.19797e-04       4.51089e+02
  6.600      2.52781e+02       2.76239e+01      -6.39099e+00       6.13452e-04       4.45047e+02
  6.700      2.51977e+02       2.76408e+01      -6.69027e+00       6.07135e-04       4.39064e+02
  6.800      2.51180e+02       2.76845e+01      -6.97923e+00       6.00847e-04       4.33143e+02
  6.900      2.50391e+02       2.77583e+01      -7.25189e+00       5.94591e-04       4.27286e+02
  7.000      2.49611e+02       2.78654e+01      -7.50229e+00       5.88368e-04       4.21497e+02
  7.100      2.48841e+02       2.80090e+01      -7.72445e+00       5.82181e-04       4.15778e+02
  7.200      2.48083e+02       2.81924e+01      -7.91240e+00       5.76030e-04       4.10132e+02
  7.300      2.47337e+02       2.84189e+01      -8.06018e+00       5.69918e-04       4.04561e+02
  7.400      2.46606e+02       2.86917e+01      -8.16181e+00       5.63845e-04       3.99067e+02
  7.500      2.45889e+02       2.90108e+01      -8.21464e+00       5.57811e-04       3.93649e+02
  7.600      2.45183e+02       2.93689e+01      -8.22395e+00       5.51814e-04       3.88297e+02
  7.700      2.44482e+02       2.97572e+01      -8.19621e+00       5.45847e-04       3.83001e+02
  7.800      2.43784e+02       3.01673e+01      -8.13788e+00       5.39909e-04       3.77752e+02
  7.900      2.43083e+02       3.05904e+01      -8.05545e+00       5.33995e-04       3.72541e+02
  8.000      2.42377e+02       3.10180e+01      -7.95538e+00       5.28102e-04       3.67359e+02
  8.100      2.41660e+02       3.14415e+01      -7.84413e+00       5.22227e-04       3.62198e+02
  8.200      2.40929e+02       3.18523e+01      -7.72820e+00       5.16368e-04       3.57051e+02
  8.300      2.40179e+02       3.22417e+01      -7.61403e+00       5.10522e-04       3.51909e+02
  8.400      2.39406e+02       3.26017e+01      -7.50784e+00       5.04688e-04       3.46769e+02
  8.500      2.38612e+02       3.29307e+01      -7.41225e+00       4.98884e-04       3.41644e+02
  8.600      2.37801e+02       3.32322e+01      -7.32732e+00       4.93138e-04       3.36561e+02
  8.700      2.36975e+02       3.35094e+01      -7.25308e+00       4.87480e-04       3.31544e+02
  8.800      2.36140e+02       3.37658e+01      -7.18954e+00       4.81936e-04       3.26619e+02
  8.900      2.35300e+02       3.40048e+01      -7.13670e+00       4.76530e-04       3.21806e+02
  9.000      2.34458e+02       3.42297e+01      -7.09459e+00       4.71288e-04       3.17128e+02
  9.100      2.33619e+02       3.44439e+01      -7.06321e+00       4.66233e-04       3.12603e+02
  9.200      2.32787e+02       3.46509e+01      -7.04259e+00       4.61385e-04       3.08251e+02
  9.300      2.31965e+02       3.48540e+01      -7.03272e+00       4.56767e-04       3.04088e+02
  9.400      2.31159e+02       3.50565e+01      -7.03364e+00       4.52397e-04       3.00132e+02
  9.500      2.30370e+02       3.52614e+01      -7.04545e+00       4.48288e-04       2.96391e+02
  9.600      2.29599e+02       3.54689e+01      -7.06878e+00       4.44416e-04       2.92848e+02
  9.700      2.28845e+02       3.56785e+01      -7.10437e+00       4.40752e-04       2.89479e+02
  9.800      2.28105e+02       3.58897e+01      -7.15296e+00       4.37266e-04       2.86260e+02
  9.900      2.27378e+02       3.61020e+01      -7.21531e+00       4.33928e-04       2.83171e+02
 10.000      2.26663e+02       3.63151e+01      -7.29215e+00       4.30712e-04       2.80189e+02
 10.100      2.25959e+02       3.65283e+01      -7.38425e+00       4.27591e-04       2.77294e+02
 10.200      2.25264e+02       3.67414e+01      -7.49233e+00       4.24539e-04       2.74468e+02
 10.300      2.24577e+02       3.69537e+01      -7.61716e+00       4.21532e-04       2.71692e+02
 10.400      2.23895e+02       3.71649e+01      -7.75947e+00       4.18544e-04       2.68948e+02
 10.500      2.23219e+02       3.73744e+01      -7.92002e+00       4.15552e-04       2.66218e+02
 10.600      2.22546e+02       3.75818e+01      -8.09955e+00       4.12533e-04       2.63487e+02
 10.700      2.21874e+02       3.77866e+01      -8.29881e+00       4.09465e-04       2.60739e+02
 10.800      2.21204e+02       3.79884e+01      -8.51854e+00       4.06326e-04       2.57958e+02
 10.900      2.20532e+02       3.81867e+01      -8.75950e+00       4.03097e-04       2.55131e+02
 11.000      2.19858e+02       3.83810e+01      -9.02242e+00       3.99756e-04       2.52243e+02
 11.100      2.19180e+02       3.85709e+01      -9.30805e+00       3.96286e-04       2.49282e+02
 11.200      2.18498e+02       3.87574e+01      -9.61558e+00       3.92671e-04       2.46240e+02
 11.300      2.17817e+02       3.89444e+01      -9.94114e+00       3.88907e-04       2.43120e+02
 11.400      2.17142e+02       3.91365e+01      -1.02805e+01       3.84991e-04       2.39926e+02
 11.500      2.16478e+02       3.93378e+01      -1.06294e+01       3.80920e-04       2.36662e+02
 11.600      2.15828e+02       3.95527e+01      -1.09837e+01       3.76690e-04       2.33331e+02
 11.700      2.15197e+02       3.97856e+01      -1.13390e+01       3.72300e-04       2.29938e+02
 11.800      2.14591e+02       4.00409e+01      -1.16912e+01       3.67747e-04       2.26487e+02
 11.900      2.14014e+02       4.03228e+01      -1.20361e+01       3.63032e-04       2.22981e+02
 12.000      2.13470e+02       4.06358e+01      -1.23693e+01       3.58152e-04       2.19425e+02
 12.100      2.12965e+02       4.09842e+01      -1.26867e+01       3.53108e-04       2.15823e+02
 12.200      2.12503e+02       4.13722e+01      -1.29840e+01       3.47901e-04       2.12179e+02
 12.300      2.12088e+02       4.18044e+01      -1.32570e+01       3.42532e-04       2.08496e+02
 12.400      2.11725e+02       4.22849e+01      -1.35014e+01       3.37002e-04       2.04780e+02
 12.500      2.11420e+02       4.28182e+01      -1.37131e+01       3.31315e-04       2.01034e+02
 12.600      2.11175e+02       4.34076e+01      -1.38882e+01       3.25475e-04       1.97262e+02
 12.700      2.10989e+02       4.40459e+01      -1.40266e+01       3.19511e-04       1.93476e+02
 12.800      2.10855e+02       4.47203e+01      -1.41305e+01       3.13459e-04       1.89691e+02
 12.900      2.10767e+02       4.54180e+01      -1.42019e+01       3.07355e-04       1.85920e+02
 13.000      2.10719e+02       4.61261e+01      -1.42430e+01       3.01233e-04       1.82175e+02
 13.100      2.10705e+02       4.68318e+01      -1.42558e+01       2.95125e-04       1.78469e+02
 13.200      2.10718e+02       4.75223e+01      -1.42425e+01       2.89058e-04       1.74811e+02
 13.300      2.10752e+02       4.81846e+01      -1.42051e+01       2.83062e-04       1.71212e+02
 13.400      2.10801e+02       4.88060e+01      -1.41458e+01       2.77159e-04       1.67681e+02
 13.500      2.10859e+02       4.93736e+01      -1.40666e+01       2.71374e-04       1.64226e+02
 13.600      2.10919e+02       4.98745e+01      -1.39696e+01       2.65726e-04       1.60854e+02
 13.700      2.10976e+02       5.02959e+01      -1.38570e+01       2.60236e-04       1.57573e+02
 13.800      2.11023e+02       5.06250e+01      -1.37309e+01       2.54919e-04       1.54388e+02
 13.900      2.11054e+02       5.08488e+01      -1.35933e+01       2.49793e-04       1.51305e+02
 14.000      2.11062e+02       5.09552e+01      -1.34463e+01       2.44869e-04       1.48329e+02
 14.100      2.11047e+02       5.09419e+01      -1.32911e+01       2.40147e-04       1.45458e+02
 14.200      2.11009e+02       5.08153e+01      -1.31282e+01       2.35614e-04       1.42687e+02
 14.300      2.10949e+02       5.05818e+01      -1.29579e+01       2.31259e-04       1.40010e+02
 14.400      2.10870e+02       5.02480e+01      -1.27809e+01       2.27069e-04       1.37422e+02
 14.500      2.10773e+02       4.98206e+01      -1.25974e+01       2.23035e-04       1.34918e+02
 14.600      2.10659e+02       4.93060e+01      -1.24080e+01       2.19146e-04       1.32494e+02
 14.700      2.10529e+02       4.87109e+01      -1.22130e+01       2.15394e-04       1.30145e+02
 14.800      2.10385e+02       4.80416e+01      -1.20130e+01       2.11768e-04       1.27867e+02
 14.900      2.10229e+02       4.73050e+01      -1.18084e+01       2.08260e-04       1.25655e+02
 15.000      2.10062e+02       4.65074e+01      -1.15997e+01       2.04863e-04       1.23508e+02
 15.100      2.09886e+02       4.56554e+01      -1.13872e+01       2.01569e-04       1.21419e+02
 15.200      2.09701e+02       4.47556e+01      -1.11715e+01       1.98370e-04       1.19387e+02
 15.300      2.09510e+02       4.38146e+01      -1.09529e+01       1.95260e-04       1.17409e+02
 15.400      2.09313e+02       4.28388e+01      -1.07320e+01       1.92233e-04       1.15480e+02
 15.500      2.09113e+02       4.18350e+01      -1.05091e+01       1.89282e-04       1.13598e+02
 15.600      2.08911e+02       4.08095e+01      -1.02848e+01       1.86401e-04       1.11761e+02
 15.700      2.08707e+02       3.97690e+01      -1.00594e+01       1.83584e-04       1.09965e+02
 15.800      2.08505e+02       3.87200e+01      -9.83345e+00       1.80827e-04       1.08209e+02
 15.900      2.08305e+02       3.76692e+01      -9.60736e+00       1.78125e-04       1.06489e+02
 16.000      2.08108e+02       3.66229e+01      -9.38158e+00       1.75472e-04       1.04804e+02
 16.100      2.07916e+02       3.55879e+01      -9.15656e+00       1.72865e-04       1.03152e+02
 16.200      2.07731e+02       3.45706e+01      -8.93274e+00       1.70298e-04       1.01530e+02
 16.300      2.07554e+02       3.35776e+01      -8.71058e+00       1.67767e-04       9.99357e+01
 16.400      2.07386e+02       3.26140e+01      -8.49050e+00       1.65271e-04       9.83687e+01
 16.500      2.07228e+02       3.16796e+01      -8.27296e+00       1.62805e-04       9.68273e+01
 16.600      2.07078e+02       3.07730e+01      -8.05837e+00       1.60371e-04       9.53108e+01
 16.700      2.06938e+02       2.98929e+01      -7.84716e+00       1.57966e-04       9.38183e+01
 16.800      2.06807e+02       2.90380e+01      -7.63978e+00       1.55591e-04       9.23490e+01
 16.900      2.06686e+02       2.82069e+01      -7.43664e+00       1.53243e-04       9.09022e+01
 17.000      2.06573e+02       2.73982e+01      -7.23816e+00       1.50923e-04       8.94771e+01
 17.100      2.06470e+02       2.66107e+01      -7.04480e+00       1.48629e-04       8.80730e+01
 17.200      2.06375e+02       2.58429e+01      -6.85696e+00       1.46361e-04       8.66893e+01
 17.300      2.06289e+02       2.50935e+01      -6.67509e+00       1.44118e-04       8.53253e+01
 17.400      2.06213e+02       2.43612e+01      -6.49961e+00       1.41899e-04       8.39804e+01
 17.500      2.06145e+02       2.36446e+01      -6.33094e+00       1.39704e-04       8.26540e+01
 17.600      2.06086e+02       2.29423e+01      -6.16953e+00       1.37532e-04       8.13456e+01
 17.700      2.06036e+02       2.22531e+01      -6.01579e+00       1.35382e-04       8.00545e+01
 17.800      2.05994e+02       2.15755e+01      -5.87016e+00       1.33254e-04       7.87803e+01
 17.900      2.05961e+02       2.09083e+01      -5.73307e+00       1.31148e-04       7.75225e+01
 18.000      2.05937e+02       2.02500e+01      -5.60494e+00       1.29062e-04       7.62805e+01
 18.100      2.05921e+02       1.95993e+01      -5.48621e+00       1.26996e-04       7.50541e+01
 18.200      2.05914e+02       1.89550e+01      -5.37730e+00       1.24951e-04       7.38426e+01
 18.300      2.05915e+02       1.83155e+01      -5.27865e+00       1.22925e-04       7.26459e+01
 18.400      2.05925e+02       1.76797e+01      -5.19068e+00       1.20918e-04       7.14632e+01
 18.500      2.05943e+02       1.70460e+01      -5.11382e+00       1.18930e-04       7.02945e+01
 18.600      2.05969e+02       1.64135e+01      -5.04842e+00       1.16961e-04       6.91392e+01
 18.700      2.06003e+02       1.57824e+01      -4.99415e+00       1.15011e-04       6.79978e+01
 18.800      2.06046e+02       1.51541e+01      -4.95031e+00       1.13081e-04       6.68707e+01
 18.900      2.06097e+02       1.45298e+01      -4.91619e+00       1.11172e-04       6.57583e+01
 19.000      2.06157e+02       1.39108e+01      -4.89109e+00       1.09286e-04       6.46610e+01
 19.100      2.06224e+02       1.32983e+01      -4.87433e+00       1.07422e-04       6.35792e+01
 19.200      2.06300e+02       1.26936e+01      -4.86518e+00       1.05582e-04       6.25133e+01
 19.300      2.06384e+02       1.20981e+01      -4.86296e+00       1.03767e-04       6.14635e+01
 19.400      2.06476e+02       1.15128e+01      -4.86697e+00       1.01977e-04       6.04302e+01
 19.500      2.06577e+02       1.09392e+01      -4.87649e+00       1.00212e-04       5.94135e+01
 19.600      2.06686e+02       1.03784e+01      -4.89084e+00       9.84741e-05       5.84137e+01
 19.700      2.06803e+02       9.83183e+00      -4.90931e+00       9.67627e-05       5.74310e+01
 19.800      2.06928e+02       9.30062e+00      -4.93120e+00       9.50786e-05       5.64655e+01
 19.900      2.07061e+02       8.78608e+00      -4.95581e+00       9.34219e-05       5.55174e+01
 20.000      2.07203e+02       8.28947e+00      -4.98244e+00       9.17932e-05       5.45868e+01
 20.100      2.07352e+02       7.81206e+00      -5.01039e+00       9.01926e-05       5.36738e+01
 20.200      2.07510e+02       7.35512e+00      -5.03895e+00       8.86205e-05       5.27784e+01
 20.300      2.07676e+02       6.91992e+00      -5.06744e+00       8.70771e-05       5.19007e+01
