# Data Source: NASA MERRA (version 2)
# Model Time = 2011-02-09 18:00:00
# Location = [  39.1026,  -84.5123 ]
# Fields = [ Z(km), T(K), U(m/s), V(m/s), R(g/cm3), P(mbar) ]
# Ground Height = 0.165
  0.000      2.69143e+02       2.03003e+00       2.64217e-01       1.32919e-03       1.02672e+03
  0.100      2.68167e+02       2.48748e+00       4.34658e-01       1.31702e-03       1.01363e+03
  0.200      2.67169e+02       2.97148e+00       5.30282e-01       1.30514e-03       1.00075e+03
  0.300      2.66170e+02       3.45694e+00       6.21747e-01       1.29340e-03       9.88038e+02
  0.400      2.65191e+02       3.91882e+00       7.79706e-01       1.28164e-03       9.75452e+02
  0.500      2.64242e+02       4.34700e+00       1.05606e+00       1.26978e-03       9.62966e+02
  0.600      2.63286e+02       4.79795e+00       1.41905e+00       1.25800e-03       9.50585e+02
  0.700      2.62335e+02       5.33911e+00       1.79439e+00       1.24628e-03       9.38323e+02
  0.800      2.61693e+02       6.00286e+00       2.01886e+00       1.23318e-03       9.26191e+02
  0.900      2.61635e+02       6.77779e+00       1.94615e+00       1.21748e-03       9.14198e+02
  1.000      2.61811e+02       7.47093e+00       1.65905e+00       1.20089e-03       9.02346e+02
  1.100      2.61724e+02       7.86067e+00       1.30740e+00       1.18571e-03       8.90639e+02
  1.200      2.61328e+02       7.96289e+00       9.68868e-01       1.17208e-03       8.79074e+02
  1.300      2.60782e+02       7.89979e+00       6.88795e-01       1.15927e-03       8.67651e+02
  1.400      2.60243e+02       7.79410e+00       5.12372e-01       1.14657e-03       8.56368e+02
  1.500      2.59867e+02       7.76659e+00       4.83448e-01       1.13328e-03       8.45223e+02
  1.600      2.59710e+02       7.87535e+00       6.01822e-01       1.11920e-03       8.34215e+02
  1.700      2.59710e+02       8.10317e+00       8.14430e-01       1.10462e-03       8.23347e+02
  1.800      2.59800e+02       8.42842e+00       1.06509e+00       1.08985e-03       8.12617e+02
  1.900      2.59909e+02       8.82945e+00       1.29760e+00       1.07519e-03       8.02026e+02
  2.000      2.59977e+02       9.28461e+00       1.46166e+00       1.06090e-03       7.91574e+02
  2.100      2.59986e+02       9.77217e+00       1.54934e+00       1.04704e-03       7.81259e+02
  2.200      2.59941e+02       1.02704e+01       1.57135e+00       1.03358e-03       7.71078e+02
  2.300      2.59847e+02       1.07575e+01       1.53849e+00       1.02047e-03       7.61028e+02
  2.400      2.59708e+02       1.12117e+01       1.46153e+00       1.00771e-03       7.51104e+02
  2.500      2.59527e+02       1.16163e+01       1.35169e+00       9.95252e-04       7.41306e+02
  2.600      2.59298e+02       1.19821e+01       1.22245e+00       9.83127e-04       7.31628e+02
  2.700      2.59011e+02       1.23297e+01       1.08815e+00       9.71355e-04       7.22067e+02
  2.800      2.58657e+02       1.26798e+01       9.63072e-01       9.59958e-04       7.12620e+02
  2.900      2.58226e+02       1.30529e+01       8.61544e-01       9.48960e-04       7.03282e+02
  3.000      2.57710e+02       1.34686e+01       7.97531e-01       9.38378e-04       6.94051e+02
  3.100      2.57123e+02       1.39340e+01       7.80719e-01       9.28154e-04       6.84924e+02
  3.200      2.56488e+02       1.44479e+01       8.17872e-01       9.18187e-04       6.75897e+02
  3.300      2.55834e+02       1.50088e+01       9.15698e-01       9.08377e-04       6.66969e+02
  3.400      2.55185e+02       1.56150e+01       1.08091e+00       8.98627e-04       6.58136e+02
  3.500      2.54568e+02       1.62652e+01       1.32020e+00       8.88842e-04       6.49397e+02
  3.600      2.54005e+02       1.69551e+01       1.63626e+00       8.78953e-04       6.40751e+02
  3.700      2.53499e+02       1.76723e+01       2.01864e+00       8.68950e-04       6.32199e+02
  3.800      2.53054e+02       1.84022e+01       2.45423e+00       8.58839e-04       6.23744e+02
  3.900      2.52670e+02       1.91307e+01       2.92995e+00       8.48623e-04       6.15390e+02
  4.000      2.52350e+02       1.98433e+01       3.43267e+00       8.38307e-04       6.07139e+02
  4.100      2.52094e+02       2.05257e+01       3.94929e+00       8.27898e-04       5.98993e+02
  4.200      2.51899e+02       2.11697e+01       4.46717e+00       8.17420e-04       5.90953e+02
  4.300      2.51739e+02       2.17846e+01       4.97485e+00       8.06954e-04       5.83017e+02
  4.400      2.51588e+02       2.23823e+01       5.46112e+00       7.96588e-04       5.75182e+02
  4.500      2.51418e+02       2.29748e+01       5.91473e+00       7.86403e-04       5.67445e+02
  4.600      2.51203e+02       2.35742e+01       6.32446e+00       7.76477e-04       5.59803e+02
  4.700      2.50915e+02       2.41924e+01       6.67909e+00       7.66887e-04       5.52255e+02
  4.800      2.50530e+02       2.48406e+01       6.96953e+00       7.57694e-04       5.44797e+02
  4.900      2.50050e+02       2.55191e+01       7.20886e+00       7.48878e-04       5.37428e+02
  5.000      2.49498e+02       2.62217e+01       7.42329e+00       7.40366e-04       5.30145e+02
  5.100      2.48893e+02       2.69423e+01       7.63921e+00       7.32090e-04       5.22948e+02
  5.200      2.48255e+02       2.76750e+01       7.88300e+00       7.23986e-04       5.15834e+02
  5.300      2.47605e+02       2.84135e+01       8.18103e+00       7.15989e-04       5.08801e+02
  5.400      2.46965e+02       2.91518e+01       8.55970e+00       7.08038e-04       5.01849e+02
  5.500      2.46351e+02       2.98839e+01       9.04161e+00       7.00079e-04       4.94975e+02
  5.600      2.45766e+02       3.06063e+01       9.61452e+00       6.92110e-04       4.88178e+02
  5.700      2.45201e+02       3.13164e+01       1.02473e+01       6.84155e-04       4.81458e+02
  5.800      2.44647e+02       3.20119e+01       1.09087e+01       6.76238e-04       4.74811e+02
  5.900      2.44096e+02       3.26901e+01       1.15675e+01       6.68381e-04       4.68237e+02
  6.000      2.43539e+02       3.33487e+01       1.21923e+01       6.60606e-04       4.61735e+02
  6.100      2.42969e+02       3.39852e+01       1.27519e+01       6.52934e-04       4.55304e+02
  6.200      2.42375e+02       3.45972e+01       1.32151e+01       6.45387e-04       4.48942e+02
  6.300      2.41753e+02       3.51823e+01       1.35662e+01       6.37977e-04       4.42649e+02
  6.400      2.41102e+02       3.57386e+01       1.38281e+01       6.30707e-04       4.36427e+02
  6.500      2.40424e+02       3.62642e+01       1.40292e+01       6.23577e-04       4.30278e+02
  6.600      2.39718e+02       3.67573e+01       1.41981e+01       6.16585e-04       4.24204e+02
  6.700      2.38985e+02       3.72160e+01       1.43635e+01       6.09731e-04       4.18207e+02
  6.800      2.38228e+02       3.76384e+01       1.45536e+01       6.03015e-04       4.12289e+02
  6.900      2.37445e+02       3.80227e+01       1.47972e+01       5.96435e-04       4.06451e+02
  7.000      2.36638e+02       3.83669e+01       1.51228e+01       5.89992e-04       4.00695e+02
  7.100      2.35809e+02       3.86710e+01       1.55533e+01       5.83683e-04       3.95020e+02
  7.200      2.34958e+02       3.89449e+01       1.60796e+01       5.77487e-04       3.89417e+02
  7.300      2.34089e+02       3.92022e+01       1.66809e+01       5.71381e-04       3.83874e+02
  7.400      2.33204e+02       3.94565e+01       1.73368e+01       5.65341e-04       3.78380e+02
  7.500      2.32305e+02       3.97214e+01       1.80263e+01       5.59346e-04       3.72924e+02
  7.600      2.31394e+02       4.00105e+01       1.87290e+01       5.53373e-04       3.67496e+02
  7.700      2.30475e+02       4.03373e+01       1.94241e+01       5.47403e-04       3.62087e+02
  7.800      2.29549e+02       4.07155e+01       2.00909e+01       5.41414e-04       3.56687e+02
  7.900      2.28618e+02       4.11587e+01       2.07087e+01       5.35390e-04       3.51288e+02
  8.000      2.27687e+02       4.16788e+01       2.12587e+01       5.29314e-04       3.45886e+02
  8.100      2.26759e+02       4.22753e+01       2.17368e+01       5.23207e-04       3.40502e+02
  8.200      2.25841e+02       4.29408e+01       2.21466e+01       5.17101e-04       3.35167e+02
  8.300      2.24942e+02       4.36683e+01       2.24914e+01       5.11028e-04       3.29911e+02
  8.400      2.24067e+02       4.44505e+01       2.27749e+01       5.05020e-04       3.24764e+02
  8.500      2.23223e+02       4.52802e+01       2.30005e+01       4.99104e-04       3.19751e+02
  8.600      2.22417e+02       4.61503e+01       2.31716e+01       4.93309e-04       3.14897e+02
  8.700      2.21656e+02       4.70534e+01       2.32919e+01       4.87658e-04       3.10226e+02
  8.800      2.20947e+02       4.79825e+01       2.33648e+01       4.82178e-04       3.05758e+02
  8.900      2.20297e+02       4.89304e+01       2.33937e+01       4.76890e-04       3.01515e+02
  9.000      2.19712e+02       4.98899e+01       2.33823e+01       4.71814e-04       2.97514e+02
  9.100      2.19192e+02       5.08555e+01       2.33329e+01       4.66942e-04       2.93745e+02
  9.200      2.18734e+02       5.18230e+01       2.32475e+01       4.62244e-04       2.90181e+02
  9.300      2.18333e+02       5.27879e+01       2.31279e+01       4.57692e-04       2.86797e+02
  9.400      2.17985e+02       5.37458e+01       2.29762e+01       4.53260e-04       2.83567e+02
  9.500      2.17687e+02       5.46925e+01       2.27941e+01       4.48922e-04       2.80469e+02
  9.600      2.17434e+02       5.56236e+01       2.25835e+01       4.44653e-04       2.77479e+02
  9.700      2.17222e+02       5.65347e+01       2.23465e+01       4.40431e-04       2.74576e+02
  9.800      2.17047e+02       5.74215e+01       2.20847e+01       4.36232e-04       2.71740e+02
  9.900      2.16905e+02       5.82796e+01       2.18002e+01       4.32036e-04       2.68950e+02
 10.000      2.16792e+02       5.91048e+01       2.14949e+01       4.27820e-04       2.66187e+02
 10.100      2.16704e+02       5.98925e+01       2.11705e+01       4.23566e-04       2.63433e+02
 10.200      2.16637e+02       6.06386e+01       2.08291e+01       4.19254e-04       2.60671e+02
 10.300      2.16587e+02       6.13386e+01       2.04725e+01       4.14867e-04       2.57883e+02
 10.400      2.16550e+02       6.19882e+01       2.01025e+01       4.10387e-04       2.55054e+02
 10.500      2.16521e+02       6.25830e+01       1.97212e+01       4.05798e-04       2.52169e+02
 10.600      2.16497e+02       6.31187e+01       1.93304e+01       4.01084e-04       2.49212e+02
 10.700      2.16475e+02       6.35926e+01       1.89317e+01       3.96240e-04       2.46177e+02
 10.800      2.16453e+02       6.40052e+01       1.85267e+01       3.91270e-04       2.43065e+02
 10.900      2.16432e+02       6.43570e+01       1.81167e+01       3.86184e-04       2.39882e+02
 11.000      2.16410e+02       6.46487e+01       1.77031e+01       3.80990e-04       2.36632e+02
 11.100      2.16388e+02       6.48812e+01       1.72872e+01       3.75694e-04       2.33318e+02
 11.200      2.16363e+02       6.50550e+01       1.68704e+01       3.70307e-04       2.29946e+02
 11.300      2.16337e+02       6.51709e+01       1.64542e+01       3.64834e-04       2.26520e+02
 11.400      2.16307e+02       6.52296e+01       1.60399e+01       3.59284e-04       2.23044e+02
 11.500      2.16274e+02       6.52318e+01       1.56288e+01       3.53665e-04       2.19522e+02
 11.600      2.16237e+02       6.51782e+01       1.52223e+01       3.47985e-04       2.15959e+02
 11.700      2.16195e+02       6.50694e+01       1.48219e+01       3.42250e-04       2.12359e+02
 11.800      2.16147e+02       6.49062e+01       1.44289e+01       3.36469e-04       2.08726e+02
 11.900      2.16094e+02       6.46894e+01       1.40447e+01       3.30648e-04       2.05065e+02
 12.000      2.16034e+02       6.44195e+01       1.36706e+01       3.24795e-04       2.01378e+02
 12.100      2.15966e+02       6.40975e+01       1.33080e+01       3.18916e-04       1.97672e+02
 12.200      2.15893e+02       6.37265e+01       1.29574e+01       3.13027e-04       1.93955e+02
 12.300      2.15813e+02       6.33113e+01       1.26190e+01       3.07145e-04       1.90241e+02
 12.400      2.15731e+02       6.28567e+01       1.22929e+01       3.01288e-04       1.86542e+02
 12.500      2.15646e+02       6.23675e+01       1.19790e+01       2.95473e-04       1.82870e+02
 12.600      2.15561e+02       6.18486e+01       1.16775e+01       2.89714e-04       1.79234e+02
 12.700      2.15477e+02       6.13048e+01       1.13884e+01       2.84025e-04       1.75646e+02
 12.800      2.15395e+02       6.07409e+01       1.11117e+01       2.78420e-04       1.72115e+02
 12.900      2.15317e+02       6.01617e+01       1.08476e+01       2.72910e-04       1.68648e+02
 13.000      2.15245e+02       5.95721e+01       1.05961e+01       2.67507e-04       1.65253e+02
 13.100      2.15180e+02       5.89768e+01       1.03573e+01       2.62219e-04       1.61937e+02
 13.200      2.15123e+02       5.83807e+01       1.01313e+01       2.57057e-04       1.58708e+02
 13.300      2.15076e+02       5.77886e+01       9.91799e+00       2.52027e-04       1.55569e+02
 13.400      2.15041e+02       5.72053e+01       9.71760e+00       2.47139e-04       1.52526e+02
 13.500      2.15019e+02       5.66356e+01       9.53014e+00       2.42398e-04       1.49585e+02
 13.600      2.15011e+02       5.60830e+01       9.35553e+00       2.37807e-04       1.46746e+02
 13.700      2.15016e+02       5.55473e+01       9.19331e+00       2.33361e-04       1.44006e+02
 13.800      2.15033e+02       5.50277e+01       9.04294e+00       2.29053e-04       1.41359e+02
 13.900      2.15061e+02       5.45233e+01       8.90390e+00       2.24877e-04       1.38799e+02
 14.000      2.15098e+02       5.40335e+01       8.77565e+00       2.20827e-04       1.36323e+02
 14.100      2.15143e+02       5.35573e+01       8.65767e+00       2.16898e-04       1.33926e+02
 14.200      2.15195e+02       5.30941e+01       8.54942e+00       2.13084e-04       1.31603e+02
 14.300      2.15254e+02       5.26430e+01       8.45037e+00       2.09380e-04       1.29350e+02
 14.400      2.15317e+02       5.22032e+01       8.35999e+00       2.05782e-04       1.27165e+02
 14.500      2.15384e+02       5.17739e+01       8.27775e+00       2.02284e-04       1.25042e+02
 14.600      2.15453e+02       5.13544e+01       8.20313e+00       1.98882e-04       1.22979e+02
 14.700      2.15523e+02       5.09439e+01       8.13558e+00       1.95573e-04       1.20972e+02
 14.800      2.15594e+02       5.05415e+01       8.07459e+00       1.92351e-04       1.19018e+02
 14.900      2.15663e+02       5.01465e+01       8.01961e+00       1.89214e-04       1.17115e+02
 15.000      2.15730e+02       4.97581e+01       7.97012e+00       1.86157e-04       1.15258e+02
 15.100      2.15794e+02       4.93755e+01       7.92560e+00       1.83176e-04       1.13446e+02
 15.200      2.15853e+02       4.89979e+01       7.88549e+00       1.80270e-04       1.11677e+02
 15.300      2.15906e+02       4.86245e+01       7.84929e+00       1.77433e-04       1.09947e+02
 15.400      2.15952e+02       4.82546e+01       7.81646e+00       1.74664e-04       1.08254e+02
 15.500      2.15990e+02       4.78872e+01       7.78646e+00       1.71959e-04       1.06596e+02
 15.600      2.16018e+02       4.75217e+01       7.75876e+00       1.69315e-04       1.04971e+02
 15.700      2.16036e+02       4.71573e+01       7.73284e+00       1.66730e-04       1.03377e+02
 15.800      2.16042e+02       4.67931e+01       7.70817e+00       1.64201e-04       1.01812e+02
 15.900      2.16036e+02       4.64284e+01       7.68421e+00       1.61726e-04       1.00274e+02
 16.000      2.16015e+02       4.60624e+01       7.66043e+00       1.59301e-04       9.87610e+01
 16.100      2.15981e+02       4.56949e+01       7.63625e+00       1.56926e-04       9.72728e+01
 16.200      2.15934e+02       4.53259e+01       7.61109e+00       1.54597e-04       9.58081e+01
 16.300      2.15875e+02       4.49552e+01       7.58435e+00       1.52311e-04       9.43661e+01
 16.400      2.15805e+02       4.45828e+01       7.55544e+00       1.50068e-04       9.29460e+01
 16.500      2.15724e+02       4.42087e+01       7.52377e+00       1.47864e-04       9.15470e+01
 16.600      2.15635e+02       4.38327e+01       7.48875e+00       1.45698e-04       9.01685e+01
 16.700      2.15536e+02       4.34549e+01       7.44979e+00       1.43568e-04       8.88097e+01
 16.800      2.15430e+02       4.30751e+01       7.40629e+00       1.41472e-04       8.74700e+01
 16.900      2.15317e+02       4.26934e+01       7.35767e+00       1.39408e-04       8.61487e+01
 17.000      2.15199e+02       4.23095e+01       7.30334e+00       1.37375e-04       8.48453e+01
 17.100      2.15074e+02       4.19236e+01       7.24270e+00       1.35370e-04       8.35591e+01
 17.200      2.14946e+02       4.15355e+01       7.17517e+00       1.33393e-04       8.22897e+01
 17.300      2.14814e+02       4.11452e+01       7.10015e+00       1.31443e-04       8.10364e+01
 17.400      2.14679e+02       4.07525e+01       7.01705e+00       1.29516e-04       7.97987e+01
 17.500      2.14542e+02       4.03575e+01       6.92528e+00       1.27613e-04       7.85762e+01
 17.600      2.14405e+02       3.99601e+01       6.82425e+00       1.25732e-04       7.73684e+01
 17.700      2.14267e+02       3.95602e+01       6.71337e+00       1.23872e-04       7.61749e+01
 17.800      2.14130e+02       3.91578e+01       6.59205e+00       1.22032e-04       7.49951e+01
 17.900      2.13995e+02       3.87527e+01       6.45970e+00       1.20210e-04       7.38288e+01
 18.000      2.13861e+02       3.83451e+01       6.31572e+00       1.18406e-04       7.26755e+01
 18.100      2.13731e+02       3.79346e+01       6.15952e+00       1.16619e-04       7.15349e+01
 18.200      2.13606e+02       3.75214e+01       5.99052e+00       1.14847e-04       7.04066e+01
 18.300      2.13485e+02       3.71054e+01       5.80821e+00       1.13090e-04       6.92903e+01
 18.400      2.13369e+02       3.66866e+01       5.61304e+00       1.11348e-04       6.81862e+01
 18.500      2.13259e+02       3.62651e+01       5.40618e+00       1.09622e-04       6.70947e+01
 18.600      2.13155e+02       3.58409e+01       5.18879e+00       1.07913e-04       6.60163e+01
 18.700      2.13057e+02       3.54142e+01       4.96206e+00       1.06221e-04       6.49513e+01
 18.800      2.12965e+02       3.49851e+01       4.72715e+00       1.04547e-04       6.39002e+01
 18.900      2.12880e+02       3.45536e+01       4.48523e+00       1.02891e-04       6.28631e+01
 19.000      2.12802e+02       3.41198e+01       4.23748e+00       1.01255e-04       6.18405e+01
 19.100      2.12731e+02       3.36839e+01       3.98506e+00       9.96378e-05       6.08326e+01
 19.200      2.12667e+02       3.32459e+01       3.72915e+00       9.80408e-05       5.98397e+01
 19.300      2.12611e+02       3.28059e+01       3.47092e+00       9.64642e-05       5.88619e+01
 19.400      2.12563e+02       3.23640e+01       3.21155e+00       9.49083e-05       5.78995e+01
 19.500      2.12524e+02       3.19203e+01       2.95219e+00       9.33737e-05       5.69526e+01
 19.600      2.12492e+02       3.14749e+01       2.69403e+00       9.18605e-05       5.60214e+01
 19.700      2.12470e+02       3.10278e+01       2.43824e+00       9.03691e-05       5.51060e+01
 19.800      2.12456e+02       3.05792e+01       2.18598e+00       8.88998e-05       5.42065e+01
 19.900      2.12452e+02       3.01291e+01       1.93844e+00       8.74527e-05       5.33231e+01
 20.000      2.12457e+02       2.96777e+01       1.69677e+00       8.60281e-05       5.24556e+01
 20.100      2.12471e+02       2.92250e+01       1.46216e+00       8.46260e-05       5.16043e+01
 20.200      2.12496e+02       2.87712e+01       1.23577e+00       8.32467e-05       5.07691e+01
 20.300      2.12531e+02       2.83162e+01       1.01878e+00       8.18903e-05       4.99501e+01
