# Data Source: NASA GEOS5 Near-Real-Time
# Model Time = 2010-05-27 18:00:00
# Location = [  39.7393, -104.9900 ]
# Fields = [ Z(km), T(K), U(m/s), V(m/s), R(g/cm3), P(mbar) ]
# Ground Height = 1.589
  0.000      3.10659e+02       2.46649e+00       3.83020e+00       1.13295e-03       1.01013e+03
  0.100      3.10002e+02       2.45220e+00       3.85207e+00       1.12210e-03       9.98339e+02
  0.200      3.09344e+02       2.43684e+00       3.87358e+00       1.11136e-03       9.86687e+02
  0.300      3.08683e+02       2.41274e+00       3.89224e+00       1.10076e-03       9.75183e+02
  0.400      3.08018e+02       2.37811e+00       3.90420e+00       1.09029e-03       9.63831e+02
  0.500      3.07357e+02       2.35574e+00       3.90004e+00       1.07993e-03       9.52626e+02
  0.600      3.06705e+02       2.37030e+00       3.87300e+00       1.06966e-03       9.41560e+02
  0.700      3.06052e+02       2.40862e+00       3.85083e+00       1.05950e-03       9.30635e+02
  0.800      3.05377e+02       2.43977e+00       3.87610e+00       1.04954e-03       9.19853e+02
  0.900      3.04681e+02       2.45860e+00       3.93436e+00       1.03977e-03       9.09212e+02
  1.000      3.03988e+02       2.48732e+00       3.95079e+00       1.03010e-03       8.98704e+02
  1.100      3.03318e+02       2.53958e+00       3.87480e+00       1.02045e-03       8.88325e+02
  1.200      3.02682e+02       2.60166e+00       3.73079e+00       1.01080e-03       8.78080e+02
  1.300      3.02083e+02       2.65595e+00       3.55878e+00       1.00115e-03       8.67971e+02
  1.400      3.01495e+02       2.69268e+00       3.42661e+00       9.91576e-04       8.58000e+02
  1.500      3.00870e+02       2.70682e+00       3.41864e+00       9.82241e-04       8.48161e+02
  1.600      3.00178e+02       2.70193e+00       3.58434e+00       9.73230e-04       8.38450e+02
  1.700      2.99430e+02       2.70132e+00       3.89228e+00       9.64494e-04       8.28853e+02
  1.800      2.98641e+02       2.72892e+00       4.29877e+00       9.55967e-04       8.19359e+02
  1.900      2.97821e+02       2.77653e+00       4.74700e+00       9.47603e-04       8.09961e+02
  2.000      2.96980e+02       2.81090e+00       5.16991e+00       9.39372e-04       8.00658e+02
  2.100      2.96122e+02       2.80457e+00       5.51323e+00       9.31255e-04       7.91446e+02
  2.200      2.95237e+02       2.76220e+00       5.78717e+00       9.23280e-04       7.82324e+02
  2.300      2.94311e+02       2.69838e+00       6.02185e+00       9.15489e-04       7.73287e+02
  2.400      2.93338e+02       2.63542e+00       6.23837e+00       9.07890e-04       7.64335e+02
  2.500      2.92339e+02       2.61325e+00       6.43712e+00       9.00420e-04       7.55464e+02
  2.600      2.91338e+02       2.67372e+00       6.61569e+00       8.93003e-04       7.46675e+02
  2.700      2.90347e+02       2.83252e+00       6.77666e+00       8.85600e-04       7.37966e+02
  2.800      2.89365e+02       3.06956e+00       6.92936e+00       8.78209e-04       7.29334e+02
  2.900      2.88393e+02       3.36224e+00       7.08327e+00       8.70836e-04       7.20780e+02
  3.000      2.87430e+02       3.69107e+00       7.23901e+00       8.63474e-04       7.12300e+02
  3.100      2.86480e+02       4.03959e+00       7.38826e+00       8.56113e-04       7.03895e+02
  3.200      2.85549e+02       4.39190e+00       7.52263e+00       8.48739e-04       6.95564e+02
  3.300      2.84639e+02       4.73943e+00       7.64046e+00       8.41344e-04       6.87306e+02
  3.400      2.83754e+02       5.08036e+00       7.74626e+00       8.33919e-04       6.79122e+02
  3.500      2.82897e+02       5.41337e+00       7.84488e+00       8.26457e-04       6.71012e+02
  3.600      2.82066e+02       5.74352e+00       7.94325e+00       8.18962e-04       6.62974e+02
  3.700      2.81259e+02       6.08236e+00       8.05048e+00       8.11445e-04       6.55008e+02
  3.800      2.80469e+02       6.44160e+00       8.17552e+00       8.03919e-04       6.47112e+02
  3.900      2.79695e+02       6.82677e+00       8.31530e+00       7.96397e-04       6.39287e+02
  4.000      2.78934e+02       7.23464e+00       8.44972e+00       7.88886e-04       6.31534e+02
  4.100      2.78184e+02       7.66135e+00       8.55742e+00       7.81397e-04       6.23858e+02
  4.200      2.77443e+02       8.10096e+00       8.62808e+00       7.73938e-04       6.16257e+02
  4.300      2.76708e+02       8.54237e+00       8.67976e+00       7.66517e-04       6.08731e+02
  4.400      2.75976e+02       8.97362e+00       8.73507e+00       7.59140e-04       6.01277e+02
  4.500      2.75242e+02       9.38240e+00       8.81353e+00       7.51815e-04       5.93893e+02
  4.600      2.74508e+02       9.75406e+00       8.91398e+00       7.44542e-04       5.86577e+02
  4.700      2.73772e+02       1.00729e+01       9.02667e+00       7.37321e-04       5.79331e+02
  4.800      2.73035e+02       1.03236e+01       9.14190e+00       7.30150e-04       5.72154e+02
  4.900      2.72301e+02       1.05020e+01       9.25304e+00       7.23025e-04       5.65046e+02
  5.000      2.71572e+02       1.06188e+01       9.35743e+00       7.15935e-04       5.58008e+02
  5.100      2.70854e+02       1.06857e+01       9.45271e+00       7.08867e-04       5.51040e+02
  5.200      2.70151e+02       1.07126e+01       9.53832e+00       7.01815e-04       5.44141e+02
  5.300      2.69460e+02       1.06972e+01       9.62507e+00       6.94786e-04       5.37312e+02
  5.400      2.68774e+02       1.06329e+01       9.72825e+00       6.87794e-04       5.30552e+02
  5.500      2.68089e+02       1.05129e+01       9.86310e+00       6.80854e-04       5.23860e+02
  5.600      2.67397e+02       1.03373e+01       1.00406e+01       6.73983e-04       5.17235e+02
  5.700      2.66691e+02       1.01232e+01       1.02614e+01       6.67201e-04       5.10677e+02
  5.800      2.65960e+02       9.88980e+00       1.05245e+01       6.60530e-04       5.04185e+02
  5.900      2.65195e+02       9.65636e+00       1.08288e+01       6.53990e-04       4.97759e+02
  6.000      2.64396e+02       9.43504e+00       1.11647e+01       6.47584e-04       4.91397e+02
  6.100      2.63570e+02       9.22757e+00       1.15100e+01       6.41285e-04       4.85097e+02
  6.200      2.62729e+02       9.03482e+00       1.18412e+01       6.35064e-04       4.78859e+02
  6.300      2.61883e+02       8.85754e+00       1.21355e+01       6.28894e-04       4.72679e+02
  6.400      2.61037e+02       8.69180e+00       1.23854e+01       6.22762e-04       4.66559e+02
  6.500      2.60192e+02       8.52710e+00       1.26056e+01       6.16668e-04       4.60497e+02
  6.600      2.59347e+02       8.35250e+00       1.28119e+01       6.10614e-04       4.54496e+02
  6.700      2.58502e+02       8.15709e+00       1.30204e+01       6.04605e-04       4.48557e+02
  6.800      2.57656e+02       7.93880e+00       1.32404e+01       5.98639e-04       4.42677e+02
  6.900      2.56811e+02       7.71287e+00       1.34686e+01       5.92715e-04       4.36858e+02
  7.000      2.55966e+02       7.49661e+00       1.36999e+01       5.86828e-04       4.31097e+02
  7.100      2.55124e+02       7.30730e+00       1.39293e+01       5.80975e-04       4.25393e+02
  7.200      2.54283e+02       7.15763e+00       1.41515e+01       5.75155e-04       4.19744e+02
  7.300      2.53443e+02       7.03755e+00       1.43582e+01       5.69374e-04       4.14151e+02
  7.400      2.52598e+02       6.93003e+00       1.45409e+01       5.63640e-04       4.08614e+02
  7.500      2.51746e+02       6.81801e+00       1.46906e+01       5.57961e-04       4.03133e+02
  7.600      2.50882e+02       6.68495e+00       1.47988e+01       5.52345e-04       3.97706e+02
  7.700      2.50008e+02       6.53079e+00       1.48622e+01       5.46791e-04       3.92336e+02
  7.800      2.49130e+02       6.37559e+00       1.48840e+01       5.41284e-04       3.87020e+02
  7.900      2.48252e+02       6.24061e+00       1.48679e+01       5.35812e-04       3.81758e+02
  8.000      2.47382e+02       6.14715e+00       1.48177e+01       5.30362e-04       3.76549e+02
  8.100      2.46524e+02       6.11491e+00       1.47366e+01       5.24921e-04       3.71394e+02
  8.200      2.45678e+02       6.14756e+00       1.46253e+01       5.19492e-04       3.66291e+02
  8.300      2.44841e+02       6.23930e+00       1.44828e+01       5.14081e-04       3.61241e+02
  8.400      2.44009e+02       6.38423e+00       1.43080e+01       5.08697e-04       3.56243e+02
  8.500      2.43179e+02       6.57643e+00       1.41000e+01       5.03347e-04       3.51297e+02
  8.600      2.42347e+02       6.81034e+00       1.38585e+01       4.98038e-04       3.46403e+02
  8.700      2.41514e+02       7.08369e+00       1.35901e+01       4.92770e-04       3.41561e+02
  8.800      2.40681e+02       7.39598e+00       1.33051e+01       4.87541e-04       3.36771e+02
  8.900      2.39850e+02       7.74670e+00       1.30140e+01       4.82346e-04       3.32032e+02
  9.000      2.39022e+02       8.13538e+00       1.27272e+01       4.77182e-04       3.27344e+02
  9.100      2.38199e+02       8.56119e+00       1.24547e+01       4.72047e-04       3.22706e+02
  9.200      2.37381e+02       9.01585e+00       1.21976e+01       4.66942e-04       3.18119e+02
  9.300      2.36566e+02       9.48353e+00       1.19482e+01       4.61868e-04       3.13582e+02
  9.400      2.35753e+02       9.94803e+00       1.16985e+01       4.56828e-04       3.09095e+02
  9.500      2.34940e+02       1.03932e+01       1.14403e+01       4.51827e-04       3.04657e+02
  9.600      2.34126e+02       1.08029e+01       1.11654e+01       4.46865e-04       3.00267e+02
  9.700      2.33309e+02       1.11643e+01       1.08678e+01       4.41947e-04       2.95925e+02
  9.800      2.32489e+02       1.14815e+01       1.05509e+01       4.37069e-04       2.91632e+02
  9.900      2.31669e+02       1.17633e+01       1.02213e+01       4.32232e-04       2.87386e+02
 10.000      2.30848e+02       1.20187e+01       9.88521e+00       4.27431e-04       2.83187e+02
 10.100      2.30027e+02       1.22566e+01       9.54917e+00       4.22667e-04       2.79035e+02
 10.200      2.29209e+02       1.24861e+01       9.21956e+00       4.17936e-04       2.74930e+02
 10.300      2.28392e+02       1.27153e+01       8.90118e+00       4.13238e-04       2.70872e+02
 10.400      2.27577e+02       1.29499e+01       8.59273e+00       4.08576e-04       2.66859e+02
 10.500      2.26760e+02       1.31952e+01       8.29142e+00       4.03951e-04       2.62892e+02
 10.600      2.25941e+02       1.34561e+01       7.99447e+00       3.99367e-04       2.58969e+02
 10.700      2.25117e+02       1.37379e+01       7.69913e+00       3.94826e-04       2.55091e+02
 10.800      2.24286e+02       1.40456e+01       7.40260e+00       3.90331e-04       2.51257e+02
 10.900      2.23448e+02       1.43834e+01       7.10310e+00       3.85883e-04       2.47465e+02
 11.000      2.22605e+02       1.47437e+01       6.81009e+00       3.81478e-04       2.43717e+02
 11.100      2.21763e+02       1.51119e+01       6.54023e+00       3.77106e-04       2.40013e+02
 11.200      2.20927e+02       1.54730e+01       6.31031e+00       3.72758e-04       2.36351e+02
 11.300      2.20103e+02       1.58121e+01       6.13709e+00       3.68424e-04       2.32731e+02
 11.400      2.19296e+02       1.61143e+01       6.03738e+00       3.64096e-04       2.29155e+02
 11.500      2.18513e+02       1.63646e+01       6.02794e+00       3.59766e-04       2.25621e+02
 11.600      2.17758e+02       1.65505e+01       6.12145e+00       3.55426e-04       2.22129e+02
 11.700      2.17030e+02       1.66764e+01       6.30245e+00       3.51081e-04       2.18680e+02
 11.800      2.16324e+02       1.67535e+01       6.54364e+00       3.46740e-04       2.15273e+02
 11.900      2.15635e+02       1.67931e+01       6.81767e+00       3.42409e-04       2.11908e+02
 12.000      2.14961e+02       1.68065e+01       7.09722e+00       3.38098e-04       2.08585e+02
 12.100      2.14296e+02       1.68050e+01       7.35493e+00       3.33812e-04       2.05305e+02
 12.200      2.13637e+02       1.67998e+01       7.56347e+00       3.29560e-04       2.02066e+02
 12.300      2.12979e+02       1.68023e+01       7.69588e+00       3.25347e-04       1.98869e+02
 12.400      2.12325e+02       1.68185e+01       7.74512e+00       3.21172e-04       1.95713e+02
 12.500      2.11686e+02       1.68469e+01       7.73322e+00       3.17015e-04       1.92599e+02
 12.600      2.11076e+02       1.68855e+01       7.68451e+00       3.12861e-04       1.89527e+02
 12.700      2.10505e+02       1.69322e+01       7.62335e+00       3.08691e-04       1.86496e+02
 12.800      2.09988e+02       1.69850e+01       7.57407e+00       3.04490e-04       1.83506e+02
 12.900      2.09537e+02       1.70418e+01       7.56102e+00       3.00242e-04       1.80557e+02
 13.000      2.09164e+02       1.71006e+01       7.60853e+00       2.95933e-04       1.77649e+02
 13.100      2.08882e+02       1.71593e+01       7.74095e+00       2.91550e-04       1.74782e+02
 13.200      2.08698e+02       1.72150e+01       7.97352e+00       2.87088e-04       1.71956e+02
 13.300      2.08607e+02       1.72616e+01       8.29253e+00       2.82563e-04       1.69171e+02
 13.400      2.08599e+02       1.72922e+01       8.67850e+00       2.77995e-04       1.66430e+02
 13.500      2.08665e+02       1.73004e+01       9.11197e+00       2.73403e-04       1.63733e+02
 13.600      2.08796e+02       1.72793e+01       9.57348e+00       2.68807e-04       1.61080e+02
 13.700      2.08981e+02       1.72223e+01       1.00436e+01       2.64222e-04       1.58474e+02
 13.800      2.09212e+02       1.71228e+01       1.05028e+01       2.59667e-04       1.55914e+02
 13.900      2.09480e+02       1.69739e+01       1.09316e+01       2.55156e-04       1.53402e+02
 14.000      2.09776e+02       1.67690e+01       1.13106e+01       2.50703e-04       1.50937e+02
 14.100      2.10089e+02       1.65020e+01       1.16213e+01       2.46321e-04       1.48520e+02
 14.200      2.10413e+02       1.61753e+01       1.18600e+01       2.42017e-04       1.46151e+02
 14.300      2.10743e+02       1.57976e+01       1.20334e+01       2.37794e-04       1.43826e+02
 14.400      2.11073e+02       1.53775e+01       1.21488e+01       2.33654e-04       1.41543e+02
 14.500      2.11396e+02       1.49240e+01       1.22133e+01       2.29599e-04       1.39299e+02
 14.600      2.11708e+02       1.44458e+01       1.22341e+01       2.25631e-04       1.37094e+02
 14.700      2.12003e+02       1.39516e+01       1.22185e+01       2.21751e-04       1.34924e+02
 14.800      2.12275e+02       1.34503e+01       1.21735e+01       2.17960e-04       1.32788e+02
 14.900      2.12519e+02       1.29507e+01       1.21063e+01       2.14260e-04       1.30683e+02
 15.000      2.12728e+02       1.24616e+01       1.20242e+01       2.10652e-04       1.28609e+02
 15.100      2.12898e+02       1.19916e+01       1.19343e+01       2.07136e-04       1.26563e+02
 15.200      2.13022e+02       1.15497e+01       1.18438e+01       2.03712e-04       1.24544e+02
 15.300      2.13099e+02       1.11410e+01       1.17573e+01       2.00380e-04       1.22551e+02
 15.400      2.13132e+02       1.07632e+01       1.16745e+01       1.97135e-04       1.20586e+02
 15.500      2.13126e+02       1.04133e+01       1.15946e+01       1.93972e-04       1.18647e+02
 15.600      2.13086e+02       1.00880e+01       1.15165e+01       1.90887e-04       1.16738e+02
 15.700      2.13016e+02       9.78419e+00       1.14393e+01       1.87874e-04       1.14858e+02
 15.800      2.12922e+02       9.49877e+00       1.13619e+01       1.84931e-04       1.13009e+02
 15.900      2.12808e+02       9.22857e+00       1.12836e+01       1.82052e-04       1.11190e+02
 16.000      2.12680e+02       8.97044e+00       1.12033e+01       1.79234e-04       1.09403e+02
 16.100      2.12541e+02       8.72123e+00       1.11200e+01       1.76474e-04       1.07647e+02
 16.200      2.12396e+02       8.47778e+00       1.10328e+01       1.73767e-04       1.05924e+02
 16.300      2.12251e+02       8.23697e+00       1.09407e+01       1.71112e-04       1.04234e+02
 16.400      2.12110e+02       7.99562e+00       1.08429e+01       1.68503e-04       1.02578e+02
 16.500      2.11979e+02       7.75060e+00       1.07382e+01       1.65940e-04       1.00954e+02
 16.600      2.11861e+02       7.49880e+00       1.06258e+01       1.63417e-04       9.93645e+01
 16.700      2.11759e+02       7.23869e+00       1.05054e+01       1.60935e-04       9.78079e+01
 16.800      2.11673e+02       6.97082e+00       1.03772e+01       1.58490e-04       9.62831e+01
 16.900      2.11603e+02       6.69583e+00       1.02417e+01       1.56082e-04       9.47885e+01
 17.000      2.11547e+02       6.41441e+00       1.00994e+01       1.53709e-04       9.33226e+01
 17.100      2.11504e+02       6.12721e+00       9.95065e+00       1.51370e-04       9.18842e+01
 17.200      2.11475e+02       5.83490e+00       9.79585e+00       1.49064e-04       9.04719e+01
 17.300      2.11459e+02       5.53817e+00       9.63546e+00       1.46789e-04       8.90846e+01
 17.400      2.11454e+02       5.23765e+00       9.46988e+00       1.44545e-04       8.77209e+01
 17.500      2.11461e+02       4.93402e+00       9.29954e+00       1.42331e-04       8.63799e+01
 17.600      2.11479e+02       4.62795e+00       9.12487e+00       1.40145e-04       8.50603e+01
 17.700      2.11506e+02       4.32010e+00       8.94628e+00       1.37987e-04       8.37613e+01
 17.800      2.11543e+02       4.01115e+00       8.76421e+00       1.35855e-04       8.24818e+01
 17.900      2.11589e+02       3.70175e+00       8.57906e+00       1.33750e-04       8.12207e+01
 18.000      2.11642e+02       3.39257e+00       8.39127e+00       1.31669e-04       7.99775e+01
 18.100      2.11703e+02       3.08429e+00       8.20125e+00       1.29612e-04       7.87510e+01
 18.200      2.11771e+02       2.77755e+00       8.00943e+00       1.27579e-04       7.75405e+01
 18.300      2.11845e+02       2.47305e+00       7.81623e+00       1.25569e-04       7.63453e+01
 18.400      2.11925e+02       2.17143e+00       7.62207e+00       1.23580e-04       7.51646e+01
 18.500      2.12009e+02       1.87336e+00       7.42737e+00       1.21613e-04       7.39977e+01
 18.600      2.12098e+02       1.57950e+00       7.23256e+00       1.19667e-04       7.28440e+01
 18.700      2.12190e+02       1.29054e+00       7.03806e+00       1.17741e-04       7.17028e+01
 18.800      2.12285e+02       1.00714e+00       6.84429e+00       1.15835e-04       7.05736e+01
 18.900      2.12383e+02       7.29925e-01       6.65166e+00       1.13948e-04       6.94558e+01
 19.000      2.12482e+02       4.59167e-01       6.46043e+00       1.12081e-04       6.83494e+01
 19.100      2.12583e+02       1.94695e-01       6.27070e+00       1.10234e-04       6.72551e+01
 19.200      2.12686e+02      -6.36745e-02       6.08255e+00       1.08408e-04       6.61733e+01
 19.300      2.12790e+02      -3.16120e-01       5.89607e+00       1.06605e-04       6.51046e+01
 19.400      2.12896e+02      -5.62835e-01       5.71134e+00       1.04825e-04       6.40495e+01
 19.500      2.13004e+02      -8.03998e-01       5.52845e+00       1.03069e-04       6.30083e+01
 19.600      2.13112e+02      -1.03979e+00       5.34748e+00       1.01338e-04       6.19815e+01
 19.700      2.13222e+02      -1.27040e+00       5.16851e+00       9.96318e-05       6.09694e+01
 19.800      2.13333e+02      -1.49601e+00       4.99165e+00       9.79517e-05       5.99724e+01
 19.900      2.13445e+02      -1.71680e+00       4.81696e+00       9.62979e-05       5.89908e+01
 20.000      2.13558e+02      -1.93296e+00       4.64453e+00       9.46710e-05       5.80249e+01
 20.100      2.13671e+02      -2.14467e+00       4.47445e+00       9.30714e-05       5.70748e+01
 20.200      2.13786e+02      -2.35212e+00       4.30682e+00       9.14995e-05       5.61409e+01
 20.300      2.13900e+02      -2.55547e+00       4.14170e+00       8.99556e-05       5.52232e+01
