# Data Source: NASA MERRA (version 2)
# Model Time = 2011-02-26 18:00:00
# Location = [  39.1026,  -84.5123 ]
# Fields = [ Z(km), T(K), U(m/s), V(m/s), R(g/cm3), P(mbar) ]
# Ground Height = 0.165
  0.000      2.79231e+02       9.33954e-01       3.37327e+00       1.27040e-03       1.01809e+03
  0.100      2.78409e+02       1.04056e+00       3.60260e+00       1.25860e-03       1.00567e+03
  0.200      2.77646e+02       1.13078e+00       3.81724e+00       1.24668e-03       9.93406e+02
  0.300      2.76813e+02       1.24019e+00       4.04909e+00       1.23516e-03       9.81279e+02
  0.400      2.75788e+02       1.40270e+00       4.32749e+00       1.22457e-03       9.69257e+02
  0.500      2.74619e+02       1.61020e+00       4.61609e+00       1.21464e-03       9.57327e+02
  0.600      2.73536e+02       1.80997e+00       4.81046e+00       1.20438e-03       9.45495e+02
  0.700      2.72593e+02       1.93895e+00       4.86229e+00       1.19355e-03       9.33765e+02
  0.800      2.71595e+02       1.92411e+00       4.80455e+00       1.18302e-03       9.22140e+02
  0.900      2.70488e+02       1.84009e+00       4.71046e+00       1.17303e-03       9.10620e+02
  1.000      2.69522e+02       2.05229e+00       4.72073e+00       1.16247e-03       8.99201e+02
  1.100      2.68920e+02       2.84046e+00       4.93792e+00       1.15040e-03       8.87880e+02
  1.200      2.68685e+02       4.09698e+00       5.31557e+00       1.13688e-03       8.76676e+02
  1.300      2.68777e+02       5.63584e+00       5.77705e+00       1.12214e-03       8.65608e+02
  1.400      2.69159e+02       7.27106e+00       6.24575e+00       1.10642e-03       8.54694e+02
  1.500      2.69787e+02       8.82334e+00       6.64780e+00       1.08997e-03       8.43952e+02
  1.600      2.70578e+02       1.02293e+01       6.95719e+00       1.07317e-03       8.33384e+02
  1.700      2.71415e+02       1.15231e+01       7.18827e+00       1.05651e-03       8.22979e+02
  1.800      2.72178e+02       1.27422e+01       7.35665e+00       1.04042e-03       8.12727e+02
  1.900      2.72748e+02       1.39241e+01       7.47792e+00       1.02534e-03       8.02618e+02
  2.000      2.73018e+02       1.51026e+01       7.56652e+00       1.01159e-03       7.92643e+02
  2.100      2.72998e+02       1.62816e+01       7.62605e+00       9.99095e-04       7.82796e+02
  2.200      2.72760e+02       1.74487e+01       7.65441e+00       9.87542e-04       7.73069e+02
  2.300      2.72376e+02       1.85914e+01       7.64940e+00       9.76641e-04       7.63458e+02
  2.400      2.71917e+02       1.96974e+01       7.60888e+00       9.66114e-04       7.53957e+02
  2.500      2.71453e+02       2.07545e+01       7.53093e+00       9.55705e-04       7.44560e+02
  2.600      2.71006e+02       2.17564e+01       7.41788e+00       9.45328e-04       7.35266e+02
  2.700      2.70565e+02       2.27013e+01       7.27550e+00       9.35031e-04       7.26071e+02
  2.800      2.70112e+02       2.35878e+01       7.10965e+00       9.24864e-04       7.16975e+02
  2.900      2.69635e+02       2.44143e+01       6.92621e+00       9.14874e-04       7.07977e+02
  3.000      2.69117e+02       2.51794e+01       6.73105e+00       9.05108e-04       6.99075e+02
  3.100      2.68549e+02       2.58844e+01       6.52915e+00       8.95595e-04       6.90268e+02
  3.200      2.67934e+02       2.65400e+01       6.32297e+00       8.86318e-04       6.81553e+02
  3.300      2.67278e+02       2.71581e+01       6.11451e+00       8.77253e-04       6.72929e+02
  3.400      2.66585e+02       2.77509e+01       5.90574e+00       8.68377e-04       6.64393e+02
  3.500      2.65861e+02       2.83304e+01       5.69867e+00       8.59667e-04       6.55943e+02
  3.600      2.65112e+02       2.89087e+01       5.49525e+00       8.51101e-04       6.47578e+02
  3.700      2.64346e+02       2.94904e+01       5.29607e+00       8.42649e-04       6.39295e+02
  3.800      2.63576e+02       3.00676e+01       5.09930e+00       8.34271e-04       6.31096e+02
  3.900      2.62816e+02       3.06309e+01       4.90286e+00       8.25925e-04       6.22980e+02
  4.000      2.62079e+02       3.11711e+01       4.70466e+00       8.17571e-04       6.14949e+02
  4.100      2.61378e+02       3.16790e+01       4.50264e+00       8.09168e-04       6.07001e+02
  4.200      2.60727e+02       3.21452e+01       4.29470e+00       8.00680e-04       5.99138e+02
  4.300      2.60134e+02       3.25632e+01       4.08153e+00       7.92088e-04       5.91360e+02
  4.400      2.59587e+02       3.29337e+01       3.87168e+00       7.83429e-04       5.83665e+02
  4.500      2.59073e+02       3.32591e+01       3.67514e+00       7.74747e-04       5.76054e+02
  4.600      2.58578e+02       3.35417e+01       3.50187e+00       7.66086e-04       5.68526e+02
  4.700      2.58088e+02       3.37836e+01       3.36188e+00       7.57488e-04       5.61081e+02
  4.800      2.57590e+02       3.39871e+01       3.26513e+00       7.48993e-04       5.53717e+02
  4.900      2.57069e+02       3.41549e+01       3.22105e+00       7.40639e-04       5.46435e+02
  5.000      2.56522e+02       3.42965e+01       3.22567e+00       7.32439e-04       5.39234e+02
  5.100      2.55949e+02       3.44294e+01       3.26132e+00       7.24383e-04       5.32112e+02
  5.200      2.55353e+02       3.45709e+01       3.30971e+00       7.16462e-04       5.25069e+02
  5.300      2.54739e+02       3.47387e+01       3.35252e+00       7.08663e-04       5.18104e+02
  5.400      2.54108e+02       3.49504e+01       3.37147e+00       7.00979e-04       5.11216e+02
  5.500      2.53463e+02       3.52233e+01       3.34827e+00       6.93398e-04       5.04404e+02
  5.600      2.52807e+02       3.55749e+01       3.26476e+00       6.85912e-04       4.97667e+02
  5.700      2.52142e+02       3.60099e+01       3.11171e+00       6.78513e-04       4.91004e+02
  5.800      2.51469e+02       3.65145e+01       2.89312e+00       6.71198e-04       4.84413e+02
  5.900      2.50787e+02       3.70732e+01       2.61408e+00       6.63962e-04       4.77892e+02
  6.000      2.50098e+02       3.76706e+01       2.27967e+00       6.56802e-04       4.71440e+02
  6.100      2.49401e+02       3.82913e+01       1.89500e+00       6.49716e-04       4.65053e+02
  6.200      2.48697e+02       3.89198e+01       1.46513e+00       6.42698e-04       4.58732e+02
  6.300      2.47986e+02       3.95408e+01       9.95171e-01       6.35747e-04       4.52474e+02
  6.400      2.47269e+02       4.01395e+01       4.90569e-01       6.28859e-04       4.46277e+02
  6.500      2.46546e+02       4.07102e+01      -3.77991e-02       6.22034e-04       4.40143e+02
  6.600      2.45819e+02       4.12543e+01      -5.74907e-01       6.15273e-04       4.34076e+02
  6.700      2.45089e+02       4.17735e+01      -1.10562e+00       6.08578e-04       4.28077e+02
  6.800      2.44357e+02       4.22693e+01      -1.61481e+00       6.01950e-04       4.22150e+02
  6.900      2.43624e+02       4.27435e+01      -2.08734e+00       5.95389e-04       4.16297e+02
  7.000      2.42892e+02       4.31975e+01      -2.50808e+00       5.88897e-04       4.10520e+02
  7.100      2.42161e+02       4.36330e+01      -2.86190e+00       5.82476e-04       4.04823e+02
  7.200      2.41434e+02       4.40516e+01      -3.13368e+00       5.76124e-04       3.99205e+02
  7.300      2.40710e+02       4.44561e+01      -3.31672e+00       5.69842e-04       3.93667e+02
  7.400      2.39987e+02       4.48524e+01      -3.42644e+00       5.63618e-04       3.88199e+02
  7.500      2.39264e+02       4.52470e+01      -3.48187e+00       5.57443e-04       3.82789e+02
  7.600      2.38538e+02       4.56464e+01      -3.50202e+00       5.51306e-04       3.77427e+02
  7.700      2.37808e+02       4.60571e+01      -3.50590e+00       5.45199e-04       3.72104e+02
  7.800      2.37072e+02       4.64854e+01      -3.51253e+00       5.39113e-04       3.66810e+02
  7.900      2.36327e+02       4.69379e+01      -3.54093e+00       5.33039e-04       3.61538e+02
  8.000      2.35571e+02       4.74210e+01      -3.61011e+00       5.26969e-04       3.56278e+02
  8.100      2.34803e+02       4.79411e+01      -3.73908e+00       5.20896e-04       3.51023e+02
  8.200      2.34020e+02       4.85039e+01      -3.94426e+00       5.14817e-04       3.45771e+02
  8.300      2.33226e+02       4.91075e+01      -4.22315e+00       5.08753e-04       3.40539e+02
  8.400      2.32425e+02       4.97471e+01      -4.56490e+00       5.02737e-04       3.35356e+02
  8.500      2.31622e+02       5.04180e+01      -4.95862e+00       4.96800e-04       3.30250e+02
  8.600      2.30820e+02       5.11153e+01      -5.39343e+00       4.90972e-04       3.25246e+02
  8.700      2.30025e+02       5.18340e+01      -5.85842e+00       4.85279e-04       3.20367e+02
  8.800      2.29240e+02       5.25695e+01      -6.34272e+00       4.79748e-04       3.15636e+02
  8.900      2.28471e+02       5.33168e+01      -6.83543e+00       4.74404e-04       3.11072e+02
  9.000      2.27721e+02       5.40711e+01      -7.32567e+00       4.69271e-04       3.06697e+02
  9.100      2.26996e+02       5.48276e+01      -7.80255e+00       4.64371e-04       3.02527e+02
  9.200      2.26299e+02       5.55813e+01      -8.25526e+00       4.59725e-04       2.98581e+02
  9.300      2.25632e+02       5.63287e+01      -8.67747e+00       4.55332e-04       2.94856e+02
  9.400      2.24994e+02       5.70674e+01      -9.06911e+00       4.51161e-04       2.91330e+02
  9.500      2.24383e+02       5.77953e+01      -9.43062e+00       4.47181e-04       2.87976e+02
  9.600      2.23798e+02       5.85103e+01      -9.76244e+00       4.43361e-04       2.84770e+02
  9.700      2.23235e+02       5.92101e+01      -1.00650e+01       4.39671e-04       2.81691e+02
  9.800      2.22695e+02       5.98928e+01      -1.03387e+01       4.36083e-04       2.78715e+02
  9.900      2.22174e+02       6.05561e+01      -1.05839e+01       4.32570e-04       2.75823e+02
 10.000      2.21671e+02       6.11979e+01      -1.08012e+01       4.29105e-04       2.72995e+02
 10.100      2.21183e+02       6.18161e+01      -1.09910e+01       4.25663e-04       2.70210e+02
 10.200      2.20710e+02       6.24085e+01      -1.11536e+01       4.22219e-04       2.67450e+02
 10.300      2.20250e+02       6.29731e+01      -1.12896e+01       4.18749e-04       2.64698e+02
 10.400      2.19800e+02       6.35076e+01      -1.13992e+01       4.15229e-04       2.61937e+02
 10.500      2.19358e+02       6.40100e+01      -1.14831e+01       4.11638e-04       2.59150e+02
 10.600      2.18924e+02       6.44780e+01      -1.15415e+01       4.07955e-04       2.56322e+02
 10.700      2.18494e+02       6.49096e+01      -1.15749e+01       4.04158e-04       2.53439e+02
 10.800      2.18068e+02       6.53027e+01      -1.15839e+01       4.00228e-04       2.50485e+02
 10.900      2.17643e+02       6.56551e+01      -1.15687e+01       3.96150e-04       2.47449e+02
 11.000      2.17223e+02       6.59658e+01      -1.15300e+01       3.91918e-04       2.44333e+02
 11.100      2.16809e+02       6.62337e+01      -1.14686e+01       3.87534e-04       2.41141e+02
 11.200      2.16407e+02       6.64581e+01      -1.13850e+01       3.83000e-04       2.37877e+02
 11.300      2.16019e+02       6.66380e+01      -1.12801e+01       3.78317e-04       2.34547e+02
 11.400      2.15649e+02       6.67724e+01      -1.11543e+01       3.73488e-04       2.31156e+02
 11.500      2.15299e+02       6.68606e+01      -1.10085e+01       3.68516e-04       2.27709e+02
 11.600      2.14975e+02       6.69016e+01      -1.08433e+01       3.63402e-04       2.24211e+02
 11.700      2.14678e+02       6.68945e+01      -1.06594e+01       3.58151e-04       2.20666e+02
 11.800      2.14413e+02       6.68385e+01      -1.04574e+01       3.52765e-04       2.17079e+02
 11.900      2.14183e+02       6.67325e+01      -1.02381e+01       3.47250e-04       2.13456e+02
 12.000      2.13991e+02       6.65758e+01      -1.00021e+01       3.41609e-04       2.09801e+02
 12.100      2.13841e+02       6.63674e+01      -9.75015e+00       3.35848e-04       2.06117e+02
 12.200      2.13736e+02       6.61064e+01      -9.48286e+00       3.29971e-04       2.02411e+02
 12.300      2.13680e+02       6.57921e+01      -9.20095e+00       3.23984e-04       1.98686e+02
 12.400      2.13672e+02       6.54252e+01      -8.90575e+00       3.17904e-04       1.94951e+02
 12.500      2.13707e+02       6.50098e+01      -8.59955e+00       3.11764e-04       1.91217e+02
 12.600      2.13780e+02       6.45496e+01      -8.28469e+00       3.05595e-04       1.87497e+02
 12.700      2.13883e+02       6.40487e+01      -7.96353e+00       2.99429e-04       1.83803e+02
 12.800      2.14012e+02       6.35111e+01      -7.63844e+00       2.93292e-04       1.80145e+02
 12.900      2.14161e+02       6.29408e+01      -7.31176e+00       2.87211e-04       1.76532e+02
 13.000      2.14323e+02       6.23417e+01      -6.98585e+00       2.81210e-04       1.72974e+02
 13.100      2.14494e+02       6.17179e+01      -6.66306e+00       2.75309e-04       1.69480e+02
 13.200      2.14666e+02       6.10732e+01      -6.34577e+00       2.69531e-04       1.66056e+02
 13.300      2.14834e+02       6.04118e+01      -6.03630e+00       2.63892e-04       1.62709e+02
 13.400      2.14993e+02       5.97375e+01      -5.73703e+00       2.58409e-04       1.59446e+02
 13.500      2.15136e+02       5.90543e+01      -5.45031e+00       2.53098e-04       1.56273e+02
 13.600      2.15258e+02       5.83663e+01      -5.17849e+00       2.47972e-04       1.53194e+02
 13.700      2.15352e+02       5.76774e+01      -4.92394e+00       2.43042e-04       1.50214e+02
 13.800      2.15414e+02       5.69910e+01      -4.68857e+00       2.38317e-04       1.47337e+02
 13.900      2.15444e+02       5.63077e+01      -4.47216e+00       2.33788e-04       1.44557e+02
 14.000      2.15445e+02       5.56272e+01      -4.27381e+00       2.29443e-04       1.41871e+02
 14.100      2.15418e+02       5.49490e+01      -4.09264e+00       2.25270e-04       1.39273e+02
 14.200      2.15366e+02       5.42730e+01      -3.92774e+00       2.21257e-04       1.36759e+02
 14.300      2.15290e+02       5.35988e+01      -3.77822e+00       2.17394e-04       1.34324e+02
 14.400      2.15192e+02       5.29260e+01      -3.64319e+00       2.13671e-04       1.31964e+02
 14.500      2.15075e+02       5.22544e+01      -3.52175e+00       2.10079e-04       1.29675e+02
 14.600      2.14941e+02       5.15835e+01      -3.41301e+00       2.06609e-04       1.27453e+02
 14.700      2.14791e+02       5.09131e+01      -3.31607e+00       2.03252e-04       1.25295e+02
 14.800      2.14627e+02       5.02429e+01      -3.23004e+00       2.00001e-04       1.23197e+02
 14.900      2.14452e+02       4.95725e+01      -3.15403e+00       1.96848e-04       1.21156e+02
 15.000      2.14268e+02       4.89016e+01      -3.08713e+00       1.93786e-04       1.19168e+02
 15.100      2.14076e+02       4.82299e+01      -3.02845e+00       1.90807e-04       1.17232e+02
 15.200      2.13880e+02       4.75570e+01      -2.97711e+00       1.87907e-04       1.15344e+02
 15.300      2.13680e+02       4.68827e+01      -2.93220e+00       1.85077e-04       1.13501e+02
 15.400      2.13478e+02       4.62065e+01      -2.89283e+00       1.82314e-04       1.11701e+02
 15.500      2.13278e+02       4.55283e+01      -2.85811e+00       1.79611e-04       1.09941e+02
 15.600      2.13080e+02       4.48475e+01      -2.82714e+00       1.76962e-04       1.08220e+02
 15.700      2.12887e+02       4.41640e+01      -2.79902e+00       1.74364e-04       1.06534e+02
 15.800      2.12701e+02       4.34774e+01      -2.77287e+00       1.71810e-04       1.04882e+02
 15.900      2.12524e+02       4.27873e+01      -2.74778e+00       1.69298e-04       1.03262e+02
 16.000      2.12358e+02       4.20935e+01      -2.72287e+00       1.66821e-04       1.01672e+02
 16.100      2.12205e+02       4.13956e+01      -2.69723e+00       1.64377e-04       1.00111e+02
 16.200      2.12067e+02       4.06934e+01      -2.67013e+00       1.61962e-04       9.85751e+01
 16.300      2.11944e+02       3.99872e+01      -2.64158e+00       1.59574e-04       9.70652e+01
 16.400      2.11834e+02       3.92772e+01      -2.61181e+00       1.57213e-04       9.55799e+01
 16.500      2.11738e+02       3.85640e+01      -2.58107e+00       1.54879e-04       9.41183e+01
 16.600      2.11655e+02       3.78478e+01      -2.54961e+00       1.52572e-04       9.26797e+01
 16.700      2.11585e+02       3.71291e+01      -2.51766e+00       1.50290e-04       9.12632e+01
 16.800      2.11526e+02       3.64083e+01      -2.48547e+00       1.48034e-04       8.98682e+01
 16.900      2.11479e+02       3.56858e+01      -2.45328e+00       1.45802e-04       8.84940e+01
 17.000      2.11443e+02       3.49619e+01      -2.42133e+00       1.43596e-04       8.71398e+01
 17.100      2.11417e+02       3.42370e+01      -2.38987e+00       1.41414e-04       8.58050e+01
 17.200      2.11400e+02       3.35116e+01      -2.35914e+00       1.39255e-04       8.44890e+01
 17.300      2.11393e+02       3.27860e+01      -2.32938e+00       1.37121e-04       8.31912e+01
 17.400      2.11395e+02       3.20606e+01      -2.30083e+00       1.35010e-04       8.19110e+01
 17.500      2.11405e+02       3.13357e+01      -2.27374e+00       1.32922e-04       8.06479e+01
 17.600      2.11422e+02       3.06119e+01      -2.24834e+00       1.30857e-04       7.94013e+01
 17.700      2.11446e+02       2.98894e+01      -2.22489e+00       1.28814e-04       7.81708e+01
 17.800      2.11477e+02       2.91687e+01      -2.20363e+00       1.26794e-04       7.69558e+01
 17.900      2.11513e+02       2.84501e+01      -2.18479e+00       1.24795e-04       7.57559e+01
 18.000      2.11555e+02       2.77340e+01      -2.16862e+00       1.22818e-04       7.45707e+01
 18.100      2.11602e+02       2.70209e+01      -2.15536e+00       1.20863e-04       7.33997e+01
 18.200      2.11653e+02       2.63110e+01      -2.14526e+00       1.18929e-04       7.22426e+01
 18.300      2.11707e+02       2.56049e+01      -2.13856e+00       1.17016e-04       7.10988e+01
 18.400      2.11765e+02       2.49029e+01      -2.13549e+00       1.15124e-04       6.99682e+01
 18.500      2.11826e+02       2.42054e+01      -2.13620e+00       1.13252e-04       6.88505e+01
 18.600      2.11889e+02       2.35132e+01      -2.14039e+00       1.11402e-04       6.77459e+01
 18.700      2.11954e+02       2.28274e+01      -2.14768e+00       1.09574e-04       6.66549e+01
 18.800      2.12022e+02       2.21487e+01      -2.15770e+00       1.07769e-04       6.55779e+01
 18.900      2.12093e+02       2.14780e+01      -2.17005e+00       1.05987e-04       6.45151e+01
 19.000      2.12165e+02       2.08162e+01      -2.18437e+00       1.04230e-04       6.34669e+01
 19.100      2.12240e+02       2.01643e+01      -2.20026e+00       1.02497e-04       6.24335e+01
 19.200      2.12316e+02       1.95230e+01      -2.21735e+00       1.00788e-04       6.14152e+01
 19.300      2.12395e+02       1.88933e+01      -2.23526e+00       9.91058e-05       6.04123e+01
 19.400      2.12475e+02       1.82760e+01      -2.25360e+00       9.74489e-05       5.94248e+01
 19.500      2.12558e+02       1.76721e+01      -2.27199e+00       9.58182e-05       5.84530e+01
 19.600      2.12642e+02       1.70825e+01      -2.29006e+00       9.42138e-05       5.74970e+01
 19.700      2.12728e+02       1.65079e+01      -2.30742e+00       9.26362e-05       5.65570e+01
 19.800      2.12815e+02       1.59494e+01      -2.32369e+00       9.10854e-05       5.56330e+01
 19.900      2.12904e+02       1.54077e+01      -2.33848e+00       8.95618e-05       5.47252e+01
 20.000      2.12994e+02       1.48838e+01      -2.35143e+00       8.80653e-05       5.38336e+01
 20.100      2.13085e+02       1.43786e+01      -2.36214e+00       8.65961e-05       5.29583e+01
 20.200      2.13178e+02       1.38929e+01      -2.37024e+00       8.51543e-05       5.20992e+01
 20.300      2.13272e+02       1.34277e+01      -2.37534e+00       8.37400e-05       5.12564e+01
