# Data Source: NASA GEOS5 Near-Real-Time
# Model Time = 2011-08-05 18:00:00
# Location = [  39.1026,  -84.5123 ]
# Fields = [ Z(km), T(K), U(m/s), V(m/s), R(g/cm3), P(mbar) ]
# Ground Height = 0.165
  0.000      3.04784e+02      -1.94064e+00       7.59986e-01       1.15893e-03       1.01375e+03
  0.100      3.04046e+02      -2.01064e+00       8.09519e-01       1.14864e-03       1.00232e+03
  0.200      3.03328e+02      -2.06577e+00       8.49988e-01       1.13838e-03       9.91014e+02
  0.300      3.02533e+02      -2.17888e+00       9.25786e-01       1.12852e-03       9.79855e+02
  0.400      3.01572e+02      -2.41691e+00       1.07914e+00       1.11941e-03       9.68860e+02
  0.500      3.00475e+02      -2.74285e+00       1.31417e+00       1.11091e-03       9.58009e+02
  0.600      2.99375e+02      -3.03140e+00       1.60251e+00       1.10247e-03       9.47246e+02
  0.700      2.98349e+02      -3.21156e+00       1.92351e+00       1.09376e-03       9.36545e+02
  0.800      2.97357e+02      -3.32142e+00       2.27323e+00       1.08496e-03       9.25924e+02
  0.900      2.96358e+02      -3.40463e+00       2.64629e+00       1.07625e-03       9.15399e+02
  1.000      2.95352e+02      -3.46983e+00       3.01991e+00       1.06760e-03       9.04965e+02
  1.100      2.94354e+02      -3.51342e+00       3.36600e+00       1.05897e-03       8.94612e+02
  1.200      2.93372e+02      -3.51368e+00       3.66247e+00       1.05031e-03       8.84335e+02
  1.300      2.92404e+02      -3.43178e+00       3.89286e+00       1.04164e-03       8.74142e+02
  1.400      2.91456e+02      -3.23937e+00       4.04058e+00       1.03295e-03       8.64036e+02
  1.500      2.90556e+02      -2.94295e+00       4.08779e+00       1.02413e-03       8.54018e+02
  1.600      2.89735e+02      -2.55577e+00       4.01850e+00       1.01509e-03       8.44090e+02
  1.700      2.88980e+02      -2.09143e+00       3.84846e+00       1.00588e-03       8.34251e+02
  1.800      2.88246e+02      -1.56378e+00       3.61806e+00       9.96661e-04       8.24503e+02
  1.900      2.87529e+02      -9.73467e-01       3.35811e+00       9.87442e-04       8.14846e+02
  2.000      2.86983e+02      -2.75705e-01       3.06444e+00       9.77710e-04       8.05282e+02
  2.100      2.86786e+02       5.81158e-01       2.72648e+00       9.66878e-04       7.95813e+02
  2.200      2.86904e+02       1.56210e+00       2.36865e+00       9.55099e-04       7.86442e+02
  2.300      2.87058e+02       2.53164e+00       2.05593e+00       9.43337e-04       7.77176e+02
  2.400      2.86985e+02       3.36312e+00       1.84719e+00       9.32460e-04       7.68018e+02
  2.500      2.86660e+02       4.05041e+00       1.73168e+00       9.22517e-04       7.58968e+02
  2.600      2.86178e+02       4.64711e+00       1.66413e+00       9.13173e-04       7.50017e+02
  2.700      2.85622e+02       5.20008e+00       1.60952e+00       9.04146e-04       7.41161e+02
  2.800      2.85029e+02       5.72724e+00       1.57502e+00       8.95311e-04       7.32394e+02
  2.900      2.84420e+02       6.23920e+00       1.57839e+00       8.86590e-04       7.23711e+02
  3.000      2.83818e+02       6.74557e+00       1.63228e+00       8.77912e-04       7.15110e+02
  3.100      2.83240e+02       7.25328e+00       1.73616e+00       8.69229e-04       7.06594e+02
  3.200      2.82702e+02       7.76883e+00       1.88737e+00       8.60496e-04       6.98167e+02
  3.300      2.82209e+02       8.29276e+00       2.08045e+00       8.51705e-04       6.89830e+02
  3.400      2.81744e+02       8.81302e+00       2.30392e+00       8.42911e-04       6.81581e+02
  3.500      2.81283e+02       9.31595e+00       2.54557e+00       8.34179e-04       6.73418e+02
  3.600      2.80808e+02       9.79026e+00       2.79563e+00       8.25562e-04       6.65337e+02
  3.700      2.80309e+02       1.02300e+01       3.04985e+00       8.17087e-04       6.57337e+02
  3.800      2.79777e+02       1.06298e+01       3.30478e+00       8.08778e-04       6.49416e+02
  3.900      2.79208e+02       1.09864e+01       3.55799e+00       8.00640e-04       6.41574e+02
  4.000      2.78624e+02       1.13022e+01       3.81037e+00       7.92610e-04       6.33810e+02
  4.100      2.78049e+02       1.15808e+01       4.06349e+00       7.84616e-04       6.26125e+02
  4.200      2.77507e+02       1.18238e+01       4.31772e+00       7.76600e-04       6.18518e+02
  4.300      2.76998e+02       1.20211e+01       4.56580e+00       7.68557e-04       6.10990e+02
  4.400      2.76516e+02       1.21577e+01       4.79758e+00       7.60509e-04       6.03539e+02
  4.500      2.76054e+02       1.22197e+01       5.00327e+00       7.52473e-04       5.96165e+02
  4.600      2.75605e+02       1.22111e+01       5.18097e+00       7.44472e-04       5.88868e+02
  4.700      2.75162e+02       1.21532e+01       5.33629e+00       7.36528e-04       5.81646e+02
  4.800      2.74714e+02       1.20679e+01       5.47511e+00       7.28665e-04       5.74501e+02
  4.900      2.74256e+02       1.19713e+01       5.60154e+00       7.20900e-04       5.67430e+02
  5.000      2.73787e+02       1.18609e+01       5.71386e+00       7.13232e-04       5.60435e+02
  5.100      2.73307e+02       1.17304e+01       5.80921e+00       7.05661e-04       5.53514e+02
  5.200      2.72818e+02       1.15738e+01       5.88490e+00       6.98183e-04       5.46668e+02
  5.300      2.72315e+02       1.13929e+01       5.94240e+00       6.90805e-04       5.39895e+02
  5.400      2.71793e+02       1.11971e+01       5.98749e+00       6.83539e-04       5.33192e+02
  5.500      2.71246e+02       1.09965e+01       6.02615e+00       6.76399e-04       5.26559e+02
  5.600      2.70667e+02       1.07998e+01       6.06349e+00       6.69392e-04       5.19993e+02
  5.700      2.70061e+02       1.06054e+01       6.09721e+00       6.62508e-04       5.13493e+02
  5.800      2.69438e+02       1.04068e+01       6.12136e+00       6.55719e-04       5.07059e+02
  5.900      2.68807e+02       1.01975e+01       6.12996e+00       6.49005e-04       5.00692e+02
  6.000      2.68177e+02       9.97198e+00       6.11853e+00       6.42343e-04       4.94390e+02
  6.100      2.67550e+02       9.73096e+00       6.09084e+00       6.35726e-04       4.88154e+02
  6.200      2.66928e+02       9.47742e+00       6.05352e+00       6.29151e-04       4.81981e+02
  6.300      2.66310e+02       9.21429e+00       6.01323e+00       6.22615e-04       4.75872e+02
  6.400      2.65701e+02       8.94395e+00       5.97593e+00       6.16113e-04       4.69824e+02
  6.500      2.65111e+02       8.66531e+00       5.94348e+00       6.09616e-04       4.63838e+02
  6.600      2.64558e+02       8.37597e+00       5.91616e+00       6.03091e-04       4.57917e+02
  6.700      2.64059e+02       8.07349e+00       5.89424e+00       5.96504e-04       4.52059e+02
  6.800      2.63626e+02       7.75575e+00       5.87826e+00       5.89829e-04       4.46268e+02
  6.900      2.63243e+02       7.42385e+00       5.87193e+00       5.83108e-04       4.40542e+02
  7.000      2.62869e+02       7.08115e+00       5.88115e+00       5.76432e-04       4.34880e+02
  7.100      2.62466e+02       6.73105e+00       5.91184e+00       5.69884e-04       4.29281e+02
  7.200      2.61993e+02       6.37698e+00       5.96989e+00       5.63549e-04       4.23744e+02
  7.300      2.61431e+02       6.02573e+00       6.05555e+00       5.57463e-04       4.18268e+02
  7.400      2.60796e+02       5.69110e+00       6.15733e+00       5.51582e-04       4.12851e+02
  7.500      2.60114e+02       5.38775e+00       6.26233e+00       5.45851e-04       4.07492e+02
  7.600      2.59406e+02       5.13033e+00       6.35763e+00       5.40218e-04       4.02190e+02
  7.700      2.58696e+02       4.93277e+00       6.43069e+00       5.34633e-04       3.96942e+02
  7.800      2.57992e+02       4.79760e+00       6.47486e+00       5.29078e-04       3.91749e+02
  7.900      2.57292e+02       4.71815e+00       6.48820e+00       5.23556e-04       3.86609e+02
  8.000      2.56595e+02       4.68749e+00       6.46892e+00       5.18070e-04       3.81521e+02
  8.100      2.55898e+02       4.69870e+00       6.41523e+00       5.12626e-04       3.76487e+02
  8.200      2.55200e+02       4.74525e+00       6.32483e+00       5.07225e-04       3.71504e+02
  8.300      2.54503e+02       4.82451e+00       6.19022e+00       5.01865e-04       3.66574e+02
  8.400      2.53809e+02       4.93616e+00       6.00085e+00       4.96540e-04       3.61696e+02
  8.500      2.53124e+02       5.07990e+00       5.74614e+00       4.91241e-04       3.56870e+02
  8.600      2.52450e+02       5.25544e+00       5.41552e+00       4.85963e-04       3.52096e+02
  8.700      2.51792e+02       5.46188e+00       4.99927e+00       4.80700e-04       3.47375e+02
  8.800      2.51152e+02       5.68789e+00       4.50288e+00       4.75450e-04       3.42707e+02
  8.900      2.50528e+02       5.91312e+00       3.94499e+00       4.70212e-04       3.38090e+02
  9.000      2.49922e+02       6.11692e+00       3.34464e+00       4.64986e-04       3.33524e+02
  9.100      2.49334e+02       6.27865e+00       2.72091e+00       4.59774e-04       3.29009e+02
  9.200      2.48763e+02       6.37767e+00       2.09283e+00       4.54576e-04       3.24545e+02
  9.300      2.48207e+02       6.40350e+00       1.47729e+00       4.49397e-04       3.20130e+02
  9.400      2.47654e+02       6.37559e+00       8.84739e-01       4.44259e-04       3.15765e+02
  9.500      2.47091e+02       6.31889e+00       3.24433e-01       4.39184e-04       3.11448e+02
  9.600      2.46506e+02       6.25834e+00      -1.94351e-01       4.34193e-04       3.07179e+02
  9.700      2.45884e+02       6.21888e+00      -6.62338e-01       4.29310e-04       3.02958e+02
  9.800      2.45213e+02       6.22533e+00      -1.07032e+00       4.24553e-04       2.98784e+02
  9.900      2.44488e+02       6.29072e+00      -1.41353e+00       4.19930e-04       2.94657e+02
 10.000      2.43715e+02       6.40772e+00      -1.69486e+00       4.15427e-04       2.90575e+02
 10.100      2.42902e+02       6.56698e+00      -1.91800e+00       4.11026e-04       2.86537e+02
 10.200      2.42057e+02       6.75915e+00      -2.08663e+00       4.06711e-04       2.82543e+02
 10.300      2.41188e+02       6.97489e+00      -2.20441e+00       4.02468e-04       2.78592e+02
 10.400      2.40304e+02       7.20484e+00      -2.27503e+00       3.98281e-04       2.74683e+02
 10.500      2.39411e+02       7.44116e+00      -2.30297e+00       3.94136e-04       2.70815e+02
 10.600      2.38516e+02       7.68073e+00      -2.29523e+00       3.90023e-04       2.66987e+02
 10.700      2.37624e+02       7.92136e+00      -2.25934e+00       3.85934e-04       2.63200e+02
 10.800      2.36741e+02       8.16084e+00      -2.20278e+00       3.81859e-04       2.59453e+02
 10.900      2.35872e+02       8.39699e+00      -2.13307e+00       3.77790e-04       2.55747e+02
 11.000      2.35024e+02       8.62761e+00      -2.05770e+00       3.73718e-04       2.52079e+02
 11.100      2.34200e+02       8.85051e+00      -1.98418e+00       3.69635e-04       2.48451e+02
 11.200      2.33402e+02       9.06390e+00      -1.91922e+00       3.65541e-04       2.44863e+02
 11.300      2.32626e+02       9.26645e+00      -1.86865e+00       3.61445e-04       2.41313e+02
 11.400      2.31865e+02       9.45686e+00      -1.83826e+00       3.57356e-04       2.37803e+02
 11.500      2.31115e+02       9.63384e+00      -1.83381e+00       3.53283e-04       2.34333e+02
 11.600      2.30370e+02       9.79608e+00      -1.86109e+00       3.49235e-04       2.30902e+02
 11.700      2.29626e+02       9.94229e+00      -1.92585e+00       3.45221e-04       2.27510e+02
 11.800      2.28877e+02       1.00712e+01      -2.03384e+00       3.41247e-04       2.24157e+02
 11.900      2.28118e+02       1.01810e+01      -2.18508e+00       3.37322e-04       2.20844e+02
 12.000      2.27348e+02       1.02695e+01      -2.36863e+00       3.33445e-04       2.17570e+02
 12.100      2.26565e+02       1.03340e+01      -2.57228e+00       3.29620e-04       2.14333e+02
 12.200      2.25767e+02       1.03721e+01      -2.78383e+00       3.25848e-04       2.11134e+02
 12.300      2.24952e+02       1.03812e+01      -2.99107e+00       3.22130e-04       2.07971e+02
 12.400      2.24118e+02       1.03589e+01      -3.18181e+00       3.18468e-04       2.04845e+02
 12.500      2.23264e+02       1.03027e+01      -3.34385e+00       3.14864e-04       2.01754e+02
 12.600      2.22387e+02       1.02102e+01      -3.46533e+00       3.11319e-04       1.98699e+02
 12.700      2.21488e+02       1.00827e+01      -3.54584e+00       3.07830e-04       1.95678e+02
 12.800      2.20570e+02       9.92569e+00      -3.59886e+00       3.04393e-04       1.92692e+02
 12.900      2.19638e+02       9.74519e+00      -3.63868e+00       3.01000e-04       1.89738e+02
 13.000      2.18694e+02       9.54710e+00      -3.67960e+00       2.97647e-04       1.86818e+02
 13.100      2.17742e+02       9.33731e+00      -3.73591e+00       2.94327e-04       1.83931e+02
 13.200      2.16787e+02       9.12174e+00      -3.82191e+00       2.91034e-04       1.81075e+02
 13.300      2.15831e+02       8.90629e+00      -3.95188e+00       2.87765e-04       1.78252e+02
 13.400      2.14879e+02       8.69688e+00      -4.14013e+00       2.84512e-04       1.75459e+02
 13.500      2.13933e+02       8.49782e+00      -4.39798e+00       2.81272e-04       1.72697e+02
 13.600      2.12998e+02       8.30299e+00      -4.71697e+00       2.78040e-04       1.69967e+02
 13.700      2.12076e+02       8.10200e+00      -5.08064e+00       2.74813e-04       1.67267e+02
 13.800      2.11173e+02       7.88444e+00      -5.47250e+00       2.71588e-04       1.64600e+02
 13.900      2.10290e+02       7.63991e+00      -5.87605e+00       2.68361e-04       1.61964e+02
 14.000      2.09433e+02       7.35801e+00      -6.27482e+00       2.65129e-04       1.59361e+02
 14.100      2.08603e+02       7.02832e+00      -6.65230e+00       2.61889e-04       1.56791e+02
 14.200      2.07806e+02       6.64047e+00      -6.99200e+00       2.58638e-04       1.54253e+02
 14.300      2.07044e+02       6.18402e+00      -7.27743e+00       2.55374e-04       1.51748e+02
 14.400      2.06322e+02       5.64874e+00      -7.49220e+00       2.52094e-04       1.49276e+02
 14.500      2.05641e+02       5.03546e+00      -7.62737e+00       2.48796e-04       1.46837e+02
 14.600      2.05005e+02       4.36422e+00      -7.68693e+00       2.45479e-04       1.44431e+02
 14.700      2.04414e+02       3.65693e+00      -7.67609e+00       2.42143e-04       1.42058e+02
 14.800      2.03872e+02       2.93550e+00      -7.60009e+00       2.38787e-04       1.39717e+02
 14.900      2.03379e+02       2.22185e+00      -7.46416e+00       2.35410e-04       1.37408e+02
 15.000      2.02937e+02       1.53789e+00      -7.27354e+00       2.32012e-04       1.35131e+02
 15.100      2.02548e+02       9.05527e-01      -7.03346e+00       2.28594e-04       1.32885e+02
 15.200      2.02215e+02       3.46691e-01      -6.74916e+00       2.25155e-04       1.30670e+02
 15.300      2.01939e+02      -1.16719e-01      -6.42586e+00       2.21696e-04       1.28487e+02
 15.400      2.01721e+02      -4.62780e-01      -6.06881e+00       2.18216e-04       1.26334e+02
 15.500      2.01565e+02      -6.69925e-01      -5.68322e+00       2.14717e-04       1.24212e+02
 15.600      2.01467e+02      -7.32185e-01      -5.27413e+00       2.11203e-04       1.22120e+02
 15.700      2.01425e+02      -6.65369e-01      -4.84630e+00       2.07684e-04       1.20060e+02
 15.800      2.01433e+02      -4.86897e-01      -4.40445e+00       2.04170e-04       1.18033e+02
 15.900      2.01486e+02      -2.14195e-01      -3.95331e+00       2.00668e-04       1.16040e+02
 16.000      2.01579e+02       1.35320e-01      -3.49761e+00       1.97189e-04       1.14080e+02
 16.100      2.01707e+02       5.44225e-01      -3.04209e+00       1.93740e-04       1.12156e+02
 16.200      2.01865e+02       9.95096e-01      -2.59148e+00       1.90328e-04       1.10267e+02
 16.300      2.02049e+02       1.47050e+00      -2.15051e+00       1.86961e-04       1.08415e+02
 16.400      2.02252e+02       1.95304e+00      -1.72390e+00       1.83644e-04       1.06599e+02
 16.500      2.02471e+02       2.42528e+00      -1.31640e+00       1.80384e-04       1.04820e+02
 16.600      2.02700e+02       2.86979e+00      -9.32726e-01       1.77187e-04       1.03078e+02
 16.700      2.02934e+02       3.26916e+00      -5.77616e-01       1.74058e-04       1.01375e+02
 16.800      2.03168e+02       3.60597e+00      -2.55800e-01       1.71000e-04       9.97089e+01
 16.900      2.03399e+02       3.86868e+00       2.97350e-02       1.68017e-04       9.80807e+01
 17.000      2.03627e+02       4.05960e+00       2.80102e-01       1.65104e-04       9.64885e+01
 17.100      2.03853e+02       4.18310e+00       4.97018e-01       1.62259e-04       9.49307e+01
 17.200      2.04077e+02       4.24354e+00       6.82204e-01       1.59477e-04       9.34056e+01
 17.300      2.04299e+02       4.24528e+00       8.37374e-01       1.56755e-04       9.19118e+01
 17.400      2.04521e+02       4.19269e+00       9.64255e-01       1.54091e-04       9.04477e+01
 17.500      2.04743e+02       4.09013e+00       1.06456e+00       1.51480e-04       8.90119e+01
 17.600      2.04966e+02       3.94195e+00       1.14001e+00       1.48921e-04       8.76032e+01
 17.700      2.05190e+02       3.75252e+00       1.19232e+00       1.46410e-04       8.62202e+01
 17.800      2.05416e+02       3.52621e+00       1.22322e+00       1.43944e-04       8.48618e+01
 17.900      2.05645e+02       3.26737e+00       1.23442e+00       1.41522e-04       8.35267e+01
 18.000      2.05877e+02       2.98037e+00       1.22763e+00       1.39141e-04       8.22138e+01
 18.100      2.06113e+02       2.66957e+00       1.20459e+00       1.36798e-04       8.09222e+01
 18.200      2.06353e+02       2.33933e+00       1.16700e+00       1.34492e-04       7.96507e+01
 18.300      2.06599e+02       1.99401e+00       1.11659e+00       1.32220e-04       7.83985e+01
 18.400      2.06850e+02       1.63798e+00       1.05507e+00       1.29981e-04       7.71645e+01
 18.500      2.07108e+02       1.27559e+00       9.84172e-01       1.27773e-04       7.59480e+01
 18.600      2.07373e+02       9.11211e-01       9.05603e-01       1.25593e-04       7.47481e+01
 18.700      2.07645e+02       5.49203e-01       8.21085e-01       1.23441e-04       7.35640e+01
 18.800      2.07926e+02       1.93934e-01       7.32339e-01       1.21316e-04       7.23950e+01
 18.900      2.08216e+02      -1.50246e-01       6.41081e-01       1.19215e-04       7.12403e+01
 19.000      2.08516e+02      -4.78969e-01       5.49031e-01       1.17137e-04       7.00993e+01
 19.100      2.08825e+02      -7.88574e-01       4.57743e-01       1.15081e-04       6.89715e+01
 19.200      2.09144e+02      -1.07905e+00       3.67916e-01       1.13050e-04       6.78571e+01
 19.300      2.09470e+02      -1.35158e+00       2.79972e-01       1.11043e-04       6.67567e+01
 19.400      2.09804e+02      -1.60734e+00       1.94326e-01       1.09062e-04       6.56705e+01
 19.500      2.10144e+02      -1.84751e+00       1.11400e-01       1.07109e-04       6.45990e+01
 19.600      2.10489e+02      -2.07327e+00       3.16155e-02       1.05185e-04       6.35426e+01
 19.700      2.10837e+02      -2.28579e+00      -4.46090e-02       1.03291e-04       6.25015e+01
 19.800      2.11188e+02      -2.48626e+00      -1.16852e-01       1.01427e-04       6.14761e+01
 19.900      2.11540e+02      -2.67585e+00      -1.84696e-01       9.95957e-05       6.04666e+01
 20.000      2.11893e+02      -2.85573e+00      -2.47719e-01       9.77966e-05       5.94733e+01
 20.100      2.12245e+02      -3.02710e+00      -3.05503e-01       9.60305e-05       5.84962e+01
 20.200      2.12595e+02      -3.19112e+00      -3.57626e-01       9.42983e-05       5.75358e+01
 20.300      2.12942e+02      -3.34898e+00      -4.03669e-01       9.26004e-05       5.65920e+01
