# Data Source: NASA GEOS5 Near-Real-Time
# Model Time = 2010-09-09 18:00:00
# Location = [  39.7393, -104.9900 ]
# Fields = [ Z(km), T(K), U(m/s), V(m/s), R(g/cm3), P(mbar) ]
# Ground Height = 1.589
  0.000      3.10470e+02       2.88259e+00       5.59209e+00       1.12395e-03       1.00150e+03
  0.100      3.09853e+02       2.86966e+00       5.57890e+00       1.11303e-03       9.89794e+02
  0.200      3.09224e+02       2.83980e+00       5.57032e+00       1.10228e-03       9.78240e+02
  0.300      3.08572e+02       2.77706e+00       5.57046e+00       1.09174e-03       9.66845e+02
  0.400      3.07909e+02       2.69917e+00       5.57217e+00       1.08137e-03       9.55603e+02
  0.500      3.07256e+02       2.64162e+00       5.56276e+00       1.07107e-03       9.44497e+02
  0.600      3.06618e+02       2.61137e+00       5.54868e+00       1.06083e-03       9.33524e+02
  0.700      3.05982e+02       2.58659e+00       5.55560e+00       1.05070e-03       9.22695e+02
  0.800      3.05335e+02       2.56223e+00       5.59434e+00       1.04074e-03       9.12013e+02
  0.900      3.04663e+02       2.57203e+00       5.64201e+00       1.03099e-03       9.01475e+02
  1.000      3.03961e+02       2.64459e+00       5.67268e+00       1.02144e-03       8.91072e+02
  1.100      3.03273e+02       2.74611e+00       5.66855e+00       1.01195e-03       8.80799e+02
  1.200      3.02655e+02       2.82031e+00       5.61603e+00       1.00234e-03       8.70654e+02
  1.300      3.02104e+02       2.85033e+00       5.53871e+00       9.92618e-04       8.60638e+02
  1.400      3.01540e+02       2.86662e+00       5.50484e+00       9.83056e-04       8.50756e+02
  1.500      3.00894e+02       2.90098e+00       5.57193e+00       9.73883e-04       8.41012e+02
  1.600      3.00164e+02       2.97766e+00       5.73009e+00       9.65089e-04       8.31395e+02
  1.700      2.99368e+02       3.11824e+00       5.94817e+00       9.56589e-04       8.21888e+02
  1.800      2.98516e+02       3.32203e+00       6.19453e+00       9.48339e-04       8.12480e+02
  1.900      2.97600e+02       3.55351e+00       6.43670e+00       9.40351e-04       8.03164e+02
  2.000      2.96614e+02       3.77572e+00       6.64393e+00       9.32632e-04       7.93934e+02
  2.100      2.95585e+02       3.97168e+00       6.80677e+00       9.25099e-04       7.84788e+02
  2.200      2.94557e+02       4.13754e+00       6.92976e+00       9.17605e-04       7.75725e+02
  2.300      2.93572e+02       4.27242e+00       7.01999e+00       9.10031e-04       7.66747e+02
  2.400      2.92629e+02       4.38923e+00       7.09590e+00       9.02374e-04       7.57854e+02
  2.500      2.91717e+02       4.50527e+00       7.17961e+00       8.94674e-04       7.49047e+02
  2.600      2.90824e+02       4.63694e+00       7.28954e+00       8.86972e-04       7.40326e+02
  2.700      2.89927e+02       4.79801e+00       7.43361e+00       8.79335e-04       7.31686e+02
  2.800      2.89000e+02       5.00170e+00       7.61770e+00       8.71830e-04       7.23123e+02
  2.900      2.88035e+02       5.25053e+00       7.83372e+00       8.64482e-04       7.14634e+02
  3.000      2.87052e+02       5.52445e+00       8.04401e+00       8.57228e-04       7.06219e+02
  3.100      2.86074e+02       5.80062e+00       8.20733e+00       8.50000e-04       6.97878e+02
  3.200      2.85116e+02       6.06957e+00       8.30046e+00       8.42753e-04       6.89611e+02
  3.300      2.84175e+02       6.34737e+00       8.33469e+00       8.35497e-04       6.81417e+02
  3.400      2.83247e+02       6.65295e+00       8.32523e+00       8.28243e-04       6.73293e+02
  3.500      2.82333e+02       6.99934e+00       8.28799e+00       8.20985e-04       6.65240e+02
  3.600      2.81450e+02       7.38682e+00       8.24052e+00       8.13679e-04       6.57258e+02
  3.700      2.80617e+02       7.81399e+00       8.20055e+00       8.06274e-04       6.49348e+02
  3.800      2.79846e+02       8.27264e+00       8.18750e+00       7.98735e-04       6.41511e+02
  3.900      2.79135e+02       8.73322e+00       8.22604e+00       7.91080e-04       6.33748e+02
  4.000      2.78474e+02       9.16204e+00       8.34185e+00       7.83335e-04       6.26058e+02
  4.100      2.77857e+02       9.52967e+00       8.55501e+00       7.75525e-04       6.18442e+02
  4.200      2.77271e+02       9.83263e+00       8.85139e+00       7.67686e-04       6.10901e+02
  4.300      2.76705e+02       1.00772e+01       9.20403e+00       7.59859e-04       6.03436e+02
  4.400      2.76145e+02       1.02704e+01       9.58658e+00       7.52078e-04       5.96049e+02
  4.500      2.75584e+02       1.04314e+01       9.98574e+00       7.44367e-04       5.88739e+02
  4.600      2.75017e+02       1.05909e+01       1.04001e+01       7.36733e-04       5.81503e+02
  4.700      2.74440e+02       1.07796e+01       1.08286e+01       7.29185e-04       5.74338e+02
  4.800      2.73852e+02       1.10249e+01       1.12723e+01       7.21726e-04       5.67244e+02
  4.900      2.73253e+02       1.13421e+01       1.17379e+01       7.14350e-04       5.60220e+02
  5.000      2.72650e+02       1.17445e+01       1.22335e+01       7.07048e-04       5.53269e+02
  5.100      2.72045e+02       1.22443e+01       1.27665e+01       6.99812e-04       5.46391e+02
  5.200      2.71442e+02       1.28315e+01       1.33353e+01       6.92630e-04       5.39586e+02
  5.300      2.70847e+02       1.34752e+01       1.39291e+01       6.85490e-04       5.32852e+02
  5.400      2.70263e+02       1.41437e+01       1.45373e+01       6.78378e-04       5.26188e+02
  5.500      2.69694e+02       1.48059e+01       1.51488e+01       6.71289e-04       5.19592e+02
  5.600      2.69129e+02       1.54347e+01       1.57516e+01       6.64247e-04       5.13064e+02
  5.700      2.68550e+02       1.60044e+01       1.63336e+01       6.57295e-04       5.06604e+02
  5.800      2.67942e+02       1.64896e+01       1.68824e+01       6.50472e-04       5.00209e+02
  5.900      2.67293e+02       1.68721e+01       1.73884e+01       6.43802e-04       4.93880e+02
  6.000      2.66613e+02       1.71662e+01       1.78541e+01       6.37258e-04       4.87617e+02
  6.100      2.65919e+02       1.73951e+01       1.82852e+01       6.30798e-04       4.81417e+02
  6.200      2.65226e+02       1.75822e+01       1.86874e+01       6.24383e-04       4.75280e+02
  6.300      2.64550e+02       1.77467e+01       1.90664e+01       6.17981e-04       4.69207e+02
  6.400      2.63889e+02       1.78898e+01       1.94264e+01       6.11590e-04       4.63195e+02
  6.500      2.63241e+02       1.80074e+01       1.97716e+01       6.05221e-04       4.57245e+02
  6.600      2.62601e+02       1.80956e+01       2.01062e+01       5.98882e-04       4.51357e+02
  6.700      2.61967e+02       1.81515e+01       2.04335e+01       5.92581e-04       4.45529e+02
  6.800      2.61334e+02       1.81836e+01       2.07525e+01       5.86328e-04       4.39762e+02
  6.900      2.60698e+02       1.82053e+01       2.10594e+01       5.80131e-04       4.34056e+02
  7.000      2.60057e+02       1.82306e+01       2.13507e+01       5.73998e-04       4.28411e+02
  7.100      2.59406e+02       1.82728e+01       2.16228e+01       5.67939e-04       4.22827e+02
  7.200      2.58744e+02       1.83385e+01       2.18750e+01       5.61953e-04       4.17303e+02
  7.300      2.58076e+02       1.84249e+01       2.21098e+01       5.56029e-04       4.11838e+02
  7.400      2.57406e+02       1.85285e+01       2.23304e+01       5.50157e-04       4.06432e+02
  7.500      2.56740e+02       1.86460e+01       2.25397e+01       5.44327e-04       4.01083e+02
  7.600      2.56079e+02       1.87737e+01       2.27411e+01       5.38530e-04       3.95791e+02
  7.700      2.55422e+02       1.89078e+01       2.29412e+01       5.32773e-04       3.90555e+02
  7.800      2.54761e+02       1.90443e+01       2.31477e+01       5.27070e-04       3.85374e+02
  7.900      2.54090e+02       1.91792e+01       2.33687e+01       5.21433e-04       3.80249e+02
  8.000      2.53403e+02       1.93082e+01       2.36121e+01       5.15875e-04       3.75179e+02
  8.100      2.52694e+02       1.94275e+01       2.38835e+01       5.10406e-04       3.70163e+02
  8.200      2.51965e+02       1.95328e+01       2.41789e+01       5.05021e-04       3.65200e+02
  8.300      2.51217e+02       1.96199e+01       2.44917e+01       4.99715e-04       3.60291e+02
  8.400      2.50453e+02       1.96845e+01       2.48152e+01       4.94482e-04       3.55433e+02
  8.500      2.49675e+02       1.97225e+01       2.51426e+01       4.89314e-04       3.50626e+02
  8.600      2.48885e+02       1.97314e+01       2.54673e+01       4.84209e-04       3.45870e+02
  8.700      2.48082e+02       1.97202e+01       2.57834e+01       4.79165e-04       3.41163e+02
  8.800      2.47265e+02       1.97017e+01       2.60851e+01       4.74184e-04       3.36505e+02
  8.900      2.46433e+02       1.96889e+01       2.63666e+01       4.69268e-04       3.31895e+02
  9.000      2.45583e+02       1.96949e+01       2.66221e+01       4.64419e-04       3.27333e+02
  9.100      2.44714e+02       1.97322e+01       2.68459e+01       4.59639e-04       3.22818e+02
  9.200      2.43829e+02       1.98093e+01       2.70330e+01       4.54921e-04       3.18349e+02
  9.300      2.42935e+02       1.99296e+01       2.71790e+01       4.50251e-04       3.13926e+02
  9.400      2.42040e+02       2.00965e+01       2.72797e+01       4.45615e-04       3.09549e+02
  9.500      2.41151e+02       2.03132e+01       2.73307e+01       4.41000e-04       3.05218e+02
  9.600      2.40276e+02       2.05833e+01       2.73279e+01       4.36391e-04       3.00932e+02
  9.700      2.39421e+02       2.09084e+01       2.72685e+01       4.31778e-04       2.96691e+02
  9.800      2.38587e+02       2.12795e+01       2.71625e+01       4.27159e-04       2.92495e+02
  9.900      2.37774e+02       2.16819e+01       2.70257e+01       4.22538e-04       2.88345e+02
 10.000      2.36980e+02       2.21012e+01       2.68741e+01       4.17918e-04       2.84240e+02
 10.100      2.36204e+02       2.25229e+01       2.67235e+01       4.13302e-04       2.80180e+02
 10.200      2.35445e+02       2.29323e+01       2.65899e+01       4.08694e-04       2.76166e+02
 10.300      2.34701e+02       2.33158e+01       2.64878e+01       4.04097e-04       2.72197e+02
 10.400      2.33972e+02       2.36684e+01       2.64166e+01       3.99514e-04       2.68274e+02
 10.500      2.33257e+02       2.39899e+01       2.63672e+01       3.94945e-04       2.64395e+02
 10.600      2.32554e+02       2.42803e+01       2.63304e+01       3.90395e-04       2.60561e+02
 10.700      2.31862e+02       2.45397e+01       2.62969e+01       3.85864e-04       2.56772e+02
 10.800      2.31181e+02       2.47678e+01       2.62575e+01       3.81355e-04       2.53026e+02
 10.900      2.30510e+02       2.49648e+01       2.62029e+01       3.76871e-04       2.49323e+02
 11.000      2.29847e+02       2.51354e+01       2.61267e+01       3.72410e-04       2.45664e+02
 11.100      2.29196e+02       2.52956e+01       2.60282e+01       3.67971e-04       2.42049e+02
 11.200      2.28558e+02       2.54630e+01       2.59080e+01       3.63552e-04       2.38476e+02
 11.300      2.27936e+02       2.56551e+01       2.57665e+01       3.59150e-04       2.34947e+02
 11.400      2.27331e+02       2.58896e+01       2.56039e+01       3.54762e-04       2.31461e+02
 11.500      2.26747e+02       2.61839e+01       2.54209e+01       3.50386e-04       2.28018e+02
 11.600      2.26185e+02       2.65557e+01       2.52177e+01       3.46020e-04       2.24619e+02
 11.700      2.25645e+02       2.70113e+01       2.49971e+01       3.41665e-04       2.21262e+02
 11.800      2.25120e+02       2.75244e+01       2.47682e+01       3.37331e-04       2.17948e+02
 11.900      2.24603e+02       2.80634e+01       2.45412e+01       3.33032e-04       2.14676e+02
 12.000      2.24085e+02       2.85962e+01       2.43264e+01       3.28778e-04       2.11445e+02
 12.100      2.23558e+02       2.90911e+01       2.41341e+01       3.24581e-04       2.08256e+02
 12.200      2.23015e+02       2.95161e+01       2.39744e+01       3.20452e-04       2.05107e+02
 12.300      2.22448e+02       2.98395e+01       2.38578e+01       3.16400e-04       2.01998e+02
 12.400      2.21847e+02       3.00298e+01       2.37942e+01       3.12436e-04       1.98928e+02
 12.500      2.21212e+02       3.00769e+01       2.37845e+01       3.08560e-04       1.95898e+02
 12.600      2.20547e+02       3.00028e+01       2.38161e+01       3.04763e-04       1.92906e+02
 12.700      2.19858e+02       2.98318e+01       2.38751e+01       3.01035e-04       1.89951e+02
 12.800      2.19151e+02       2.95884e+01       2.39477e+01       2.97365e-04       1.87032e+02
 12.900      2.18433e+02       2.92969e+01       2.40200e+01       2.93745e-04       1.84149e+02
 13.000      2.17709e+02       2.89817e+01       2.40781e+01       2.90164e-04       1.81302e+02
 13.100      2.16985e+02       2.86672e+01       2.41084e+01       2.86615e-04       1.78488e+02
 13.200      2.16267e+02       2.83779e+01       2.40969e+01       2.83087e-04       1.75708e+02
 13.300      2.15561e+02       2.81356e+01       2.40312e+01       2.79574e-04       1.72961e+02
 13.400      2.14871e+02       2.79404e+01       2.39111e+01       2.76072e-04       1.70248e+02
 13.500      2.14200e+02       2.77807e+01       2.37427e+01       2.72577e-04       1.67568e+02
 13.600      2.13552e+02       2.76448e+01       2.35322e+01       2.69087e-04       1.64922e+02
 13.700      2.12930e+02       2.75211e+01       2.32860e+01       2.65601e-04       1.62311e+02
 13.800      2.12337e+02       2.73981e+01       2.30101e+01       2.62117e-04       1.59736e+02
 13.900      2.11776e+02       2.72639e+01       2.27109e+01       2.58632e-04       1.57196e+02
 14.000      2.11251e+02       2.71071e+01       2.23945e+01       2.55145e-04       1.54692e+02
 14.100      2.10765e+02       2.69159e+01       2.20673e+01       2.51654e-04       1.52224e+02
 14.200      2.10321e+02       2.66787e+01       2.17354e+01       2.48158e-04       1.49793e+02
 14.300      2.09920e+02       2.63874e+01       2.14036e+01       2.44656e-04       1.47398e+02
 14.400      2.09561e+02       2.60449e+01       2.10719e+01       2.41152e-04       1.45039e+02
 14.500      2.09239e+02       2.56563e+01       2.07396e+01       2.37651e-04       1.42713e+02
 14.600      2.08950e+02       2.52264e+01       2.04060e+01       2.34157e-04       1.40421e+02
 14.700      2.08691e+02       2.47604e+01       2.00702e+01       2.30674e-04       1.38160e+02
 14.800      2.08457e+02       2.42632e+01       1.97315e+01       2.27205e-04       1.35930e+02
 14.900      2.08244e+02       2.37398e+01       1.93891e+01       2.23755e-04       1.33730e+02
 15.000      2.08049e+02       2.31953e+01       1.90422e+01       2.20327e-04       1.31558e+02
 15.100      2.07869e+02       2.26346e+01       1.86901e+01       2.16925e-04       1.29414e+02
 15.200      2.07698e+02       2.20627e+01       1.83319e+01       2.13551e-04       1.27297e+02
 15.300      2.07533e+02       2.14847e+01       1.79669e+01       2.10210e-04       1.25205e+02
 15.400      2.07372e+02       2.09051e+01       1.75945e+01       2.06903e-04       1.23140e+02
 15.500      2.07213e+02       2.03255e+01       1.72154e+01       2.03632e-04       1.21100e+02
 15.600      2.07060e+02       1.97468e+01       1.68305e+01       2.00399e-04       1.19089e+02
 15.700      2.06913e+02       1.91696e+01       1.64409e+01       1.97204e-04       1.17108e+02
 15.800      2.06774e+02       1.85949e+01       1.60475e+01       1.94049e-04       1.15156e+02
 15.900      2.06645e+02       1.80234e+01       1.56514e+01       1.90934e-04       1.13237e+02
 16.000      2.06527e+02       1.74559e+01       1.52536e+01       1.87860e-04       1.11351e+02
 16.100      2.06422e+02       1.68931e+01       1.48550e+01       1.84829e-04       1.09499e+02
 16.200      2.06331e+02       1.63358e+01       1.44568e+01       1.81841e-04       1.07681e+02
 16.300      2.06257e+02       1.57849e+01       1.40598e+01       1.78896e-04       1.05899e+02
 16.400      2.06200e+02       1.52411e+01       1.36652e+01       1.75995e-04       1.04153e+02
 16.500      2.06162e+02       1.47051e+01       1.32738e+01       1.73139e-04       1.02443e+02
 16.600      2.06145e+02       1.41778e+01       1.28868e+01       1.70327e-04       1.00772e+02
 16.700      2.06150e+02       1.36600e+01       1.25051e+01       1.67561e-04       9.91378e+01
 16.800      2.06178e+02       1.31519e+01       1.21292e+01       1.64840e-04       9.75410e+01
 16.900      2.06228e+02       1.26535e+01       1.17593e+01       1.62162e-04       9.59794e+01
 17.000      2.06298e+02       1.21647e+01       1.13954e+01       1.59526e-04       9.44515e+01
 17.100      2.06388e+02       1.16854e+01       1.10376e+01       1.56931e-04       9.29556e+01
 17.200      2.06497e+02       1.12155e+01       1.06860e+01       1.54375e-04       9.14902e+01
 17.300      2.06625e+02       1.07550e+01       1.03408e+01       1.51858e-04       9.00537e+01
 17.400      2.06769e+02       1.03037e+01       1.00020e+01       1.49377e-04       8.86447e+01
 17.500      2.06930e+02       9.86151e+00       9.66962e+00       1.46933e-04       8.72620e+01
 17.600      2.07106e+02       9.42845e+00       9.34389e+00       1.44524e-04       8.59042e+01
 17.700      2.07296e+02       9.00437e+00       9.02484e+00       1.42149e-04       8.45700e+01
 17.800      2.07500e+02       8.58921e+00       8.71258e+00       1.39806e-04       8.32584e+01
 17.900      2.07717e+02       8.18285e+00       8.40719e+00       1.37496e-04       8.19681e+01
 18.000      2.07945e+02       7.78521e+00       8.10877e+00       1.35218e-04       8.06982e+01
 18.100      2.08184e+02       7.39622e+00       7.81742e+00       1.32969e-04       7.94475e+01
 18.200      2.08433e+02       7.01577e+00       7.53321e+00       1.30750e-04       7.82152e+01
 18.300      2.08691e+02       6.64381e+00       7.25627e+00       1.28560e-04       7.70003e+01
 18.400      2.08956e+02       6.28021e+00       6.98666e+00       1.26399e-04       7.58018e+01
 18.500      2.09229e+02       5.92490e+00       6.72448e+00       1.24264e-04       7.46191e+01
 18.600      2.09508e+02       5.57780e+00       6.46984e+00       1.22156e-04       7.34513e+01
 18.700      2.09793e+02       5.23882e+00       6.22282e+00       1.20075e-04       7.22976e+01
 18.800      2.10082e+02       4.90788e+00       5.98352e+00       1.18018e-04       7.11573e+01
 18.900      2.10374e+02       4.58487e+00       5.75202e+00       1.15987e-04       7.00298e+01
 19.000      2.10669e+02       4.26969e+00       5.52838e+00       1.13980e-04       6.89146e+01
 19.100      2.10965e+02       3.96212e+00       5.31242e+00       1.11999e-04       6.78119e+01
 19.200      2.11263e+02       3.66189e+00       5.10393e+00       1.10044e-04       6.67224e+01
 19.300      2.11560e+02       3.36875e+00       4.90269e+00       1.08117e-04       6.56463e+01
 19.400      2.11857e+02       3.08243e+00       4.70845e+00       1.06219e-04       6.45842e+01
 19.500      2.12152e+02       2.80268e+00       4.52100e+00       1.04350e-04       6.35363e+01
 19.600      2.12446e+02       2.52923e+00       4.34013e+00       1.02511e-04       6.25031e+01
 19.700      2.12735e+02       2.26184e+00       4.16559e+00       1.00704e-04       6.14848e+01
 19.800      2.13021e+02       2.00024e+00       3.99718e+00       9.89281e-05       6.04818e+01
 19.900      2.13303e+02       1.74416e+00       3.83466e+00       9.71845e-05       5.94942e+01
 20.000      2.13578e+02       1.49336e+00       3.67782e+00       9.54736e-05       5.85224e+01
 20.100      2.13847e+02       1.24757e+00       3.52642e+00       9.37958e-05       5.75664e+01
 20.200      2.14109e+02       1.00653e+00       3.38025e+00       9.21515e-05       5.66265e+01
 20.300      2.14363e+02       7.69992e-01       3.23908e+00       9.05410e-05       5.57029e+01
