# Data Source: NASA MERRA (version 2)
# Model Time = 2011-01-08 18:00:00
# Location = [  39.1026,  -84.5123 ]
# Fields = [ Z(km), T(K), U(m/s), V(m/s), R(g/cm3), P(mbar) ]
# Ground Height = 0.165
  0.000      2.66237e+02       7.13922e+00      -2.93541e+00       1.32237e-03       1.01043e+03
  0.100      2.65680e+02       7.02871e+00      -2.83713e+00       1.30823e-03       9.97526e+02
  0.200      2.65084e+02       6.97338e+00      -2.76697e+00       1.29442e-03       9.84785e+02
  0.300      2.64242e+02       7.25792e+00      -2.87008e+00       1.28191e-03       9.72170e+02
  0.400      2.63106e+02       7.93757e+00      -3.18040e+00       1.27088e-03       9.59663e+02
  0.500      2.61959e+02       8.59146e+00      -3.50111e+00       1.25996e-03       9.47267e+02
  0.600      2.60999e+02       8.95580e+00      -3.71801e+00       1.24820e-03       9.34988e+02
  0.700      2.60166e+02       9.22196e+00      -3.95106e+00       1.23591e-03       9.22826e+02
  0.800      2.59391e+02       9.53179e+00      -4.30134e+00       1.22343e-03       9.10783e+02
  0.900      2.58656e+02       9.77411e+00      -4.75523e+00       1.21084e-03       8.98862e+02
  1.000      2.57956e+02       9.83990e+00      -5.27988e+00       1.19820e-03       8.87067e+02
  1.100      2.57293e+02       9.73650e+00      -5.83434e+00       1.18548e-03       8.75398e+02
  1.200      2.56669e+02       9.49304e+00      -6.37612e+00       1.17270e-03       8.63857e+02
  1.300      2.56089e+02       9.13866e+00      -6.86276e+00       1.15983e-03       8.52444e+02
  1.400      2.55551e+02       8.70325e+00      -7.25875e+00       1.14688e-03       8.41159e+02
  1.500      2.55039e+02       8.22260e+00      -7.58289e+00       1.13394e-03       8.30002e+02
  1.600      2.54524e+02       7.73526e+00      -7.87935e+00       1.12113e-03       8.18969e+02
  1.700      2.53978e+02       7.27980e+00      -8.19247e+00       1.10857e-03       8.08057e+02
  1.800      2.53374e+02       6.89466e+00      -8.56637e+00       1.09637e-03       7.97264e+02
  1.900      2.52699e+02       6.60594e+00      -9.02002e+00       1.08458e-03       7.86588e+02
  2.000      2.51966e+02       6.41605e+00      -9.52419e+00       1.07313e-03       7.76024e+02
  2.100      2.51190e+02       6.32467e+00      -1.00442e+01       1.06194e-03       7.65571e+02
  2.200      2.50389e+02       6.33152e+00      -1.05453e+01       1.05094e-03       7.55226e+02
  2.300      2.49579e+02       6.43639e+00      -1.09933e+01       1.04006e-03       7.44986e+02
  2.400      2.48794e+02       6.64118e+00      -1.13668e+01       1.02915e-03       7.34852e+02
  2.500      2.48086e+02       6.94992e+00      -1.16573e+01       1.01801e-03       7.24830e+02
  2.600      2.47507e+02       7.36677e+00      -1.18567e+01       1.00645e-03       7.14925e+02
  2.700      2.47108e+02       7.89586e+00      -1.19573e+01       9.94279e-04       7.05143e+02
  2.800      2.46939e+02       8.54088e+00      -1.19517e+01       9.81333e-04       6.95486e+02
  2.900      2.46984e+02       9.29291e+00      -1.18517e+01       9.67714e-04       6.85958e+02
  3.000      2.47152e+02       1.01294e+01      -1.16895e+01       9.53802e-04       6.76556e+02
  3.100      2.47350e+02       1.10272e+01      -1.14983e+01       9.39971e-04       6.67281e+02
  3.200      2.47487e+02       1.19631e+01      -1.13113e+01       9.26571e-04       6.58131e+02
  3.300      2.47468e+02       1.29138e+01      -1.11618e+01       9.13934e-04       6.49106e+02
  3.400      2.47231e+02       1.38595e+01      -1.10751e+01       9.02261e-04       6.40202e+02
  3.500      2.46805e+02       1.47900e+01      -1.10536e+01       8.91415e-04       6.31415e+02
  3.600      2.46233e+02       1.56970e+01      -1.10954e+01       8.81207e-04       6.22738e+02
  3.700      2.45561e+02       1.65722e+01      -1.11985e+01       8.71456e-04       6.14166e+02
  3.800      2.44832e+02       1.74073e+01      -1.13611e+01       8.61988e-04       6.05692e+02
  3.900      2.44093e+02       1.81940e+01      -1.15811e+01       8.52637e-04       5.97313e+02
  4.000      2.43370e+02       1.89276e+01      -1.18552e+01       8.43301e-04       5.89023e+02
  4.100      2.42666e+02       1.96094e+01      -1.21782e+01       8.33975e-04       5.80823e+02
  4.200      2.41979e+02       2.02412e+01      -1.25443e+01       8.24664e-04       5.72713e+02
  4.300      2.41309e+02       2.08246e+01      -1.29480e+01       8.15371e-04       5.64691e+02
  4.400      2.40655e+02       2.13613e+01      -1.33838e+01       8.06100e-04       5.56757e+02
  4.500      2.40016e+02       2.18532e+01      -1.38459e+01       7.96856e-04       5.48910e+02
  4.600      2.39393e+02       2.23077e+01      -1.43291e+01       7.87635e-04       5.41152e+02
  4.700      2.38793e+02       2.27474e+01      -1.48287e+01       7.78423e-04       5.33482e+02
  4.800      2.38223e+02       2.31973e+01      -1.53401e+01       7.69201e-04       5.25904e+02
  4.900      2.37690e+02       2.36827e+01      -1.58585e+01       7.59952e-04       5.18417e+02
  5.000      2.37201e+02       2.42285e+01      -1.63795e+01       7.50658e-04       5.11024e+02
  5.100      2.36764e+02       2.48598e+01      -1.68983e+01       7.41306e-04       5.03726e+02
  5.200      2.36384e+02       2.56010e+01      -1.74105e+01       7.31880e-04       4.96524e+02
  5.300      2.36062e+02       2.64543e+01      -1.79137e+01       7.22389e-04       4.89418e+02
  5.400      2.35790e+02       2.73994e+01      -1.84077e+01       7.12861e-04       4.82405e+02
  5.500      2.35558e+02       2.84149e+01      -1.88924e+01       7.03324e-04       4.75484e+02
  5.600      2.35360e+02       2.94793e+01      -1.93678e+01       6.93807e-04       4.68654e+02
  5.700      2.35185e+02       3.05713e+01      -1.98338e+01       6.84335e-04       4.61913e+02
  5.800      2.35026e+02       3.16693e+01      -2.02904e+01       6.74933e-04       4.55259e+02
  5.900      2.34874e+02       3.27520e+01      -2.07374e+01       6.65626e-04       4.48691e+02
  6.000      2.34724e+02       3.38022e+01      -2.11736e+01       6.56430e-04       4.42209e+02
  6.100      2.34573e+02       3.48116e+01      -2.15943e+01       6.47354e-04       4.35814e+02
  6.200      2.34421e+02       3.57735e+01      -2.19946e+01       6.38402e-04       4.29509e+02
  6.300      2.34267e+02       3.66809e+01      -2.23697e+01       6.29581e-04       4.23296e+02
  6.400      2.34111e+02       3.75271e+01      -2.27145e+01       6.20894e-04       4.17177e+02
  6.500      2.33951e+02       3.83051e+01      -2.30243e+01       6.12347e-04       4.11154e+02
  6.600      2.33788e+02       3.90082e+01      -2.32940e+01       6.03943e-04       4.05229e+02
  6.700      2.33620e+02       3.96294e+01      -2.35187e+01       5.95686e-04       3.99402e+02
  6.800      2.33448e+02       4.01658e+01      -2.36961e+01       5.87574e-04       3.93673e+02
  6.900      2.33273e+02       4.06258e+01      -2.38315e+01       5.79587e-04       3.88030e+02
  7.000      2.33098e+02       4.10199e+01      -2.39313e+01       5.71704e-04       3.82465e+02
  7.100      2.32924e+02       4.13587e+01      -2.40023e+01       5.63905e-04       3.76965e+02
  7.200      2.32753e+02       4.16527e+01      -2.40509e+01       5.56169e-04       3.71522e+02
  7.300      2.32588e+02       4.19124e+01      -2.40839e+01       5.48478e-04       3.66125e+02
  7.400      2.32431e+02       4.21482e+01      -2.41077e+01       5.40816e-04       3.60766e+02
  7.500      2.32284e+02       4.23709e+01      -2.41290e+01       5.33165e-04       3.55438e+02
  7.600      2.32149e+02       4.25908e+01      -2.41544e+01       5.25511e-04       3.50131e+02
  7.700      2.32028e+02       4.28159e+01      -2.41886e+01       5.17848e-04       3.44845e+02
  7.800      2.31918e+02       4.30430e+01      -2.42278e+01       5.10214e-04       3.39601e+02
  7.900      2.31816e+02       4.32659e+01      -2.42664e+01       5.02657e-04       3.34424e+02
  8.000      2.31720e+02       4.34783e+01      -2.42985e+01       4.95220e-04       3.29340e+02
  8.100      2.31628e+02       4.36741e+01      -2.43182e+01       4.87944e-04       3.24371e+02
  8.200      2.31535e+02       4.38470e+01      -2.43197e+01       4.80869e-04       3.19540e+02
  8.300      2.31440e+02       4.39908e+01      -2.42971e+01       4.74031e-04       3.14866e+02
  8.400      2.31339e+02       4.40993e+01      -2.42447e+01       4.67465e-04       3.10369e+02
  8.500      2.31229e+02       4.41663e+01      -2.41565e+01       4.61202e-04       3.06066e+02
  8.600      2.31108e+02       4.41856e+01      -2.40268e+01       4.55275e-04       3.01975e+02
  8.700      2.30973e+02       4.41511e+01      -2.38499e+01       4.49710e-04       2.98110e+02
  8.800      2.30824e+02       4.40620e+01      -2.36255e+01       4.44501e-04       2.94466e+02
  8.900      2.30661e+02       4.39227e+01      -2.33584e+01       4.39610e-04       2.91020e+02
  9.000      2.30485e+02       4.37377e+01      -2.30538e+01       4.34998e-04       2.87748e+02
  9.100      2.30299e+02       4.35114e+01      -2.27168e+01       4.30630e-04       2.84628e+02
  9.200      2.30104e+02       4.32486e+01      -2.23525e+01       4.26469e-04       2.81639e+02
  9.300      2.29900e+02       4.29537e+01      -2.19662e+01       4.22483e-04       2.78760e+02
  9.400      2.29690e+02       4.26313e+01      -2.15629e+01       4.18639e-04       2.75972e+02
  9.500      2.29475e+02       4.22859e+01      -2.11477e+01       4.14907e-04       2.73255e+02
  9.600      2.29256e+02       4.19221e+01      -2.07258e+01       4.11257e-04       2.70592e+02
  9.700      2.29034e+02       4.15445e+01      -2.03023e+01       4.07659e-04       2.67966e+02
  9.800      2.28811e+02       4.11575e+01      -1.98824e+01       4.04087e-04       2.65359e+02
  9.900      2.28589e+02       4.07658e+01      -1.94712e+01       4.00512e-04       2.62756e+02
 10.000      2.28368e+02       4.03738e+01      -1.90739e+01       3.96910e-04       2.60141e+02
 10.100      2.28150e+02       3.99862e+01      -1.86954e+01       3.93254e-04       2.57499e+02
 10.200      2.27936e+02       3.96075e+01      -1.83411e+01       3.89522e-04       2.54816e+02
 10.300      2.27728e+02       3.92422e+01      -1.80160e+01       3.85689e-04       2.52079e+02
 10.400      2.27527e+02       3.88949e+01      -1.77253e+01       3.81735e-04       2.49274e+02
 10.500      2.27334e+02       3.85675e+01      -1.74707e+01       3.77647e-04       2.46395e+02
 10.600      2.27148e+02       3.82570e+01      -1.72483e+01       3.73431e-04       2.43445e+02
 10.700      2.26968e+02       3.79600e+01      -1.70529e+01       3.69093e-04       2.40427e+02
 10.800      2.26794e+02       3.76729e+01      -1.68799e+01       3.64641e-04       2.37344e+02
 10.900      2.26624e+02       3.73923e+01      -1.67242e+01       3.60083e-04       2.34202e+02
 11.000      2.26457e+02       3.71146e+01      -1.65810e+01       3.55426e-04       2.31003e+02
 11.100      2.26294e+02       3.68362e+01      -1.64454e+01       3.50677e-04       2.27751e+02
 11.200      2.26132e+02       3.65538e+01      -1.63125e+01       3.45842e-04       2.24451e+02
 11.300      2.25971e+02       3.62637e+01      -1.61774e+01       3.40931e-04       2.21106e+02
 11.400      2.25811e+02       3.59625e+01      -1.60353e+01       3.35948e-04       2.17720e+02
 11.500      2.25649e+02       3.56466e+01      -1.58812e+01       3.30903e-04       2.14297e+02
 11.600      2.25487e+02       3.53125e+01      -1.57103e+01       3.25800e-04       2.10840e+02
 11.700      2.25321e+02       3.49568e+01      -1.55176e+01       3.20648e-04       2.07354e+02
 11.800      2.25153e+02       3.45759e+01      -1.52983e+01       3.15452e-04       2.03842e+02
 11.900      2.24980e+02       3.41663e+01      -1.50475e+01       3.10220e-04       2.00307e+02
 12.000      2.24803e+02       3.37255e+01      -1.47615e+01       3.04958e-04       1.96754e+02
 12.100      2.24621e+02       3.32565e+01      -1.44428e+01       2.99683e-04       1.93194e+02
 12.200      2.24434e+02       3.27641e+01      -1.40961e+01       2.94411e-04       1.89637e+02
 12.300      2.24243e+02       3.22529e+01      -1.37258e+01       2.89157e-04       1.86095e+02
 12.400      2.24048e+02       3.17277e+01      -1.33366e+01       2.83937e-04       1.82576e+02
 12.500      2.23850e+02       3.11932e+01      -1.29329e+01       2.78763e-04       1.79091e+02
 12.600      2.23648e+02       3.06542e+01      -1.25195e+01       2.73649e-04       1.75647e+02
 12.700      2.23443e+02       3.01153e+01      -1.21008e+01       2.68607e-04       1.72253e+02
 12.800      2.23236e+02       2.95813e+01      -1.16814e+01       2.63648e-04       1.68916e+02
 12.900      2.23026e+02       2.90570e+01      -1.12658e+01       2.58782e-04       1.65643e+02
 13.000      2.22815e+02       2.85470e+01      -1.08587e+01       2.54018e-04       1.62439e+02
 13.100      2.22601e+02       2.80561e+01      -1.04646e+01       2.49364e-04       1.59310e+02
 13.200      2.22386e+02       2.75891e+01      -1.00881e+01       2.44829e-04       1.56262e+02
 13.300      2.22170e+02       2.71506e+01      -9.73370e+00       2.40420e-04       1.53298e+02
 13.400      2.21953e+02       2.67453e+01      -9.40599e+00       2.36143e-04       1.50424e+02
 13.500      2.21735e+02       2.63774e+01      -9.10889e+00       2.32002e-04       1.47641e+02
 13.600      2.21517e+02       2.60461e+01      -8.84216e+00       2.27994e-04       1.44948e+02
 13.700      2.21299e+02       2.57493e+01      -8.60396e+00       2.24112e-04       1.42340e+02
 13.800      2.21080e+02       2.54844e+01      -8.39244e+00       2.20350e-04       1.39812e+02
 13.900      2.20861e+02       2.52492e+01      -8.20575e+00       2.16701e-04       1.37361e+02
 14.000      2.20643e+02       2.50414e+01      -8.04205e+00       2.13160e-04       1.34983e+02
 14.100      2.20425e+02       2.48585e+01      -7.89948e+00       2.09721e-04       1.32673e+02
 14.200      2.20207e+02       2.46982e+01      -7.77619e+00       2.06379e-04       1.30430e+02
 14.300      2.19989e+02       2.45581e+01      -7.67035e+00       2.03128e-04       1.28249e+02
 14.400      2.19772e+02       2.44360e+01      -7.58009e+00       1.99964e-04       1.26127e+02
 14.500      2.19556e+02       2.43294e+01      -7.50357e+00       1.96883e-04       1.24061e+02
 14.600      2.19341e+02       2.42361e+01      -7.43895e+00       1.93879e-04       1.22049e+02
 14.700      2.19126e+02       2.41536e+01      -7.38437e+00       1.90950e-04       1.20087e+02
 14.800      2.18913e+02       2.40796e+01      -7.33798e+00       1.88090e-04       1.18173e+02
 14.900      2.18701e+02       2.40118e+01      -7.29794e+00       1.85296e-04       1.16305e+02
 15.000      2.18490e+02       2.39478e+01      -7.26240e+00       1.82565e-04       1.14480e+02
 15.100      2.18281e+02       2.38852e+01      -7.22952e+00       1.79892e-04       1.12696e+02
 15.200      2.18073e+02       2.38217e+01      -7.19743e+00       1.77275e-04       1.10951e+02
 15.300      2.17867e+02       2.37550e+01      -7.16429e+00       1.74711e-04       1.09243e+02
 15.400      2.17663e+02       2.36827e+01      -7.12827e+00       1.72196e-04       1.07570e+02
 15.500      2.17461e+02       2.36024e+01      -7.08749e+00       1.69727e-04       1.05929e+02
 15.600      2.17261e+02       2.35118e+01      -7.04013e+00       1.67303e-04       1.04320e+02
 15.700      2.17063e+02       2.34086e+01      -6.98432e+00       1.64919e-04       1.02740e+02
 15.800      2.16867e+02       2.32904e+01      -6.91823e+00       1.62574e-04       1.01188e+02
 15.900      2.16674e+02       2.31548e+01      -6.84000e+00       1.60266e-04       9.96620e+01
 16.000      2.16484e+02       2.30006e+01      -6.74858e+00       1.57991e-04       9.81612e+01
 16.100      2.16296e+02       2.28285e+01      -6.64449e+00       1.55749e-04       9.66845e+01
 16.200      2.16112e+02       2.26395e+01      -6.52850e+00       1.53539e-04       9.52310e+01
 16.300      2.15931e+02       2.24348e+01      -6.40135e+00       1.51358e-04       9.37999e+01
 16.400      2.15753e+02       2.22154e+01      -6.26379e+00       1.49207e-04       9.23905e+01
 16.500      2.15579e+02       2.19824e+01      -6.11658e+00       1.47083e-04       9.10019e+01
 16.600      2.15409e+02       2.17368e+01      -5.96046e+00       1.44985e-04       8.96334e+01
 16.700      2.15243e+02       2.14797e+01      -5.79618e+00       1.42913e-04       8.82844e+01
 16.800      2.15082e+02       2.12121e+01      -5.62449e+00       1.40866e-04       8.69543e+01
 16.900      2.14925e+02       2.09352e+01      -5.44615e+00       1.38842e-04       8.56422e+01
 17.000      2.14773e+02       2.06499e+01      -5.26189e+00       1.36840e-04       8.43478e+01
 17.100      2.14626e+02       2.03574e+01      -5.07248e+00       1.34860e-04       8.30703e+01
 17.200      2.14484e+02       2.00587e+01      -4.87866e+00       1.32900e-04       8.18092e+01
 17.300      2.14348e+02       1.97548e+01      -4.68118e+00       1.30960e-04       8.05641e+01
 17.400      2.14218e+02       1.94469e+01      -4.48079e+00       1.29040e-04       7.93343e+01
 17.500      2.14094e+02       1.91360e+01      -4.27824e+00       1.27137e-04       7.81194e+01
 17.600      2.13976e+02       1.88231e+01      -4.07428e+00       1.25253e-04       7.69190e+01
 17.700      2.13864e+02       1.85093e+01      -3.86966e+00       1.23385e-04       7.57325e+01
 17.800      2.13759e+02       1.81958e+01      -3.66514e+00       1.21534e-04       7.45596e+01
 17.900      2.13661e+02       1.78834e+01      -3.46145e+00       1.19699e-04       7.33999e+01
 18.000      2.13569e+02       1.75734e+01      -3.25935e+00       1.17879e-04       7.22530e+01
 18.100      2.13486e+02       1.72667e+01      -3.05959e+00       1.16073e-04       7.11184e+01
 18.200      2.13409e+02       1.69644e+01      -2.86292e+00       1.14282e-04       6.99960e+01
 18.300      2.13341e+02       1.66675e+01      -2.66996e+00       1.12505e-04       6.88855e+01
 18.400      2.13279e+02       1.63762e+01      -2.48079e+00       1.10743e-04       6.77872e+01
 18.500      2.13225e+02       1.60905e+01      -2.29538e+00       1.08997e-04       6.67015e+01
 18.600      2.13178e+02       1.58106e+01      -2.11368e+00       1.07268e-04       6.56290e+01
 18.700      2.13137e+02       1.55366e+01      -1.93566e+00       1.05558e-04       6.45700e+01
 18.800      2.13102e+02       1.52685e+01      -1.76127e+00       1.03866e-04       6.35249e+01
 18.900      2.13073e+02       1.50065e+01      -1.59047e+00       1.02195e-04       6.24939e+01
 19.000      2.13049e+02       1.47506e+01      -1.42323e+00       1.00544e-04       6.14775e+01
 19.100      2.13030e+02       1.45010e+01      -1.25950e+00       9.89141e-05       6.04758e+01
 19.200      2.13016e+02       1.42577e+01      -1.09924e+00       9.73067e-05       5.94891e+01
 19.300      2.13007e+02       1.40209e+01      -9.42411e-01       9.57221e-05       5.85176e+01
 19.400      2.13001e+02       1.37906e+01      -7.88973e-01       9.41607e-05       5.75616e+01
 19.500      2.12999e+02       1.35669e+01      -6.38886e-01       9.26230e-05       5.66211e+01
 19.600      2.13000e+02       1.33499e+01      -4.92109e-01       9.11097e-05       5.56963e+01
 19.700      2.13005e+02       1.31397e+01      -3.48601e-01       8.96210e-05       5.47874e+01
 19.800      2.13012e+02       1.29365e+01      -2.08325e-01       8.81574e-05       5.38945e+01
 19.900      2.13021e+02       1.27402e+01      -7.12343e-02       8.67191e-05       5.30175e+01
 20.000      2.13033e+02       1.25511e+01       6.27080e-02       8.53065e-05       5.21567e+01
 20.100      2.13046e+02       1.23691e+01       1.93543e-01       8.39198e-05       5.13120e+01
 20.200      2.13060e+02       1.21944e+01       3.21310e-01       8.25592e-05       5.04835e+01
 20.300      2.13076e+02       1.20271e+01       4.46052e-01       8.12249e-05       4.96712e+01
