# Data Source: NASA MERRA (version 2)
# Model Time = 2011-03-18 18:00:00
# Location = [  39.1026,  -84.5123 ]
# Fields = [ Z(km), T(K), U(m/s), V(m/s), R(g/cm3), P(mbar) ]
# Ground Height = 0.165
  0.000      2.93579e+02       3.30062e+00      -1.83188e+00       1.20893e-03       1.01861e+03
  0.100      2.92775e+02       3.54573e+00      -1.74911e+00       1.19820e-03       1.00681e+03
  0.200      2.92002e+02       3.82096e+00      -1.70066e+00       1.18746e-03       9.95144e+02
  0.300      2.91207e+02       4.07456e+00      -1.62757e+00       1.17690e-03       9.83611e+02
  0.400      2.90335e+02       4.25497e+00      -1.47133e+00       1.16673e-03       9.72189e+02
  0.500      2.89376e+02       4.33299e+00      -1.22381e+00       1.15696e-03       9.60866e+02
  0.600      2.88401e+02       4.32323e+00      -9.75690e-01       1.14731e-03       9.49639e+02
  0.700      2.87499e+02       4.26669e+00      -7.97104e-01       1.13742e-03       9.38509e+02
  0.800      2.86783e+02       4.28171e+00      -6.42078e-01       1.12686e-03       9.27479e+02
  0.900      2.86345e+02       4.49217e+00      -4.46050e-01       1.11528e-03       9.16551e+02
  1.000      2.86071e+02       4.92569e+00      -2.06929e-01       1.10317e-03       9.05730e+02
  1.100      2.85751e+02       5.56290e+00       4.74743e-02       1.09135e-03       8.95020e+02
  1.200      2.85293e+02       6.36847e+00       2.94637e-01       1.08015e-03       8.84421e+02
  1.300      2.84737e+02       7.28996e+00       5.18019e-01       1.06943e-03       8.73931e+02
  1.400      2.84129e+02       8.27408e+00       7.01385e-01       1.05898e-03       8.63547e+02
  1.500      2.83514e+02       9.26752e+00       8.28499e-01       1.04865e-03       8.53268e+02
  1.600      2.82935e+02       1.02204e+01       8.84897e-01       1.03826e-03       8.43091e+02
  1.700      2.82401e+02       1.11211e+01       8.75756e-01       1.02779e-03       8.33017e+02
  1.800      2.81903e+02       1.19816e+01       8.18483e-01       1.01728e-03       8.23044e+02
  1.900      2.81427e+02       1.28143e+01       7.30669e-01       1.00678e-03       8.13174e+02
  2.000      2.80964e+02       1.36316e+01       6.29905e-01       9.96332e-04       8.03407e+02
  2.100      2.80500e+02       1.44443e+01       5.32896e-01       9.85975e-04       7.93744e+02
  2.200      2.80023e+02       1.52435e+01       4.45322e-01       9.75758e-04       7.84183e+02
  2.300      2.79516e+02       1.60068e+01       3.65406e-01       9.65730e-04       7.74719e+02
  2.400      2.78965e+02       1.67116e+01       2.91227e-01       9.55936e-04       7.65351e+02
  2.500      2.78354e+02       1.73352e+01       2.20865e-01       9.46422e-04       7.56074e+02
  2.600      2.77668e+02       1.78555e+01       1.52403e-01       9.37231e-04       7.46887e+02
  2.700      2.76912e+02       1.82685e+01       8.41172e-02       9.28339e-04       7.37786e+02
  2.800      2.76121e+02       1.85985e+01       1.45809e-02       9.19626e-04       7.28773e+02
  2.900      2.75332e+02       1.88722e+01      -5.76097e-02       9.10965e-04       7.19847e+02
  3.000      2.74583e+02       1.91161e+01      -1.33857e-01       9.02233e-04       7.11008e+02
  3.100      2.73911e+02       1.93569e+01      -2.15565e-01       8.93312e-04       7.02255e+02
  3.200      2.73350e+02       1.96191e+01      -3.03169e-01       8.84100e-04       6.93590e+02
  3.300      2.72892e+02       1.99092e+01      -3.88423e-01       8.74633e-04       6.85011e+02
  3.400      2.72506e+02       2.02240e+01      -4.58495e-01       8.65015e-04       6.76521e+02
  3.500      2.72164e+02       2.05602e+01      -5.00509e-01       8.55346e-04       6.68121e+02
  3.600      2.71836e+02       2.09146e+01      -5.01593e-01       8.45726e-04       6.59810e+02
  3.700      2.71493e+02       2.12838e+01      -4.48871e-01       8.36246e-04       6.51590e+02
  3.800      2.71107e+02       2.16644e+01      -3.32079e-01       8.26989e-04       6.43461e+02
  3.900      2.70673e+02       2.20501e+01      -1.59897e-01       8.17967e-04       6.35422e+02
  4.000      2.70193e+02       2.24341e+01       5.06253e-02       8.09164e-04       6.27470e+02
  4.100      2.69671e+02       2.28091e+01       2.82401e-01       8.00565e-04       6.19603e+02
  4.200      2.69110e+02       2.31681e+01       5.18343e-01       7.92156e-04       6.11819e+02
  4.300      2.68513e+02       2.35040e+01       7.41366e-01       7.83922e-04       6.04115e+02
  4.400      2.67883e+02       2.38100e+01       9.34713e-01       7.75850e-04       5.96491e+02
  4.500      2.67224e+02       2.40853e+01       1.09079e+00       7.67922e-04       5.88945e+02
  4.600      2.66543e+02       2.43364e+01       1.21216e+00       7.60119e-04       5.81475e+02
  4.700      2.65846e+02       2.45700e+01       1.30187e+00       7.52421e-04       5.74080e+02
  4.800      2.65138e+02       2.47928e+01       1.36301e+00       7.44810e-04       5.66760e+02
  4.900      2.64426e+02       2.50114e+01       1.39864e+00       7.37267e-04       5.59514e+02
  5.000      2.63716e+02       2.52327e+01       1.41183e+00       7.29775e-04       5.52342e+02
  5.100      2.63014e+02       2.54627e+01       1.40524e+00       7.22318e-04       5.45241e+02
  5.200      2.62320e+02       2.56998e+01       1.37654e+00       7.14891e-04       5.38212e+02
  5.300      2.61634e+02       2.59379e+01       1.32030e+00       7.07502e-04       5.31255e+02
  5.400      2.60953e+02       2.61705e+01       1.23103e+00       7.00154e-04       5.24371e+02
  5.500      2.60277e+02       2.63913e+01       1.10322e+00       6.92854e-04       5.17558e+02
  5.600      2.59603e+02       2.65940e+01       9.31369e-01       6.85605e-04       5.10818e+02
  5.700      2.58931e+02       2.67723e+01       7.09992e-01       6.78413e-04       5.04150e+02
  5.800      2.58257e+02       2.69198e+01       4.33775e-01       6.71282e-04       4.97553e+02
  5.900      2.57582e+02       2.70346e+01       1.06209e-01       6.64215e-04       4.91028e+02
  6.000      2.56903e+02       2.71206e+01      -2.56929e-01       6.57216e-04       4.84572e+02
  6.100      2.56217e+02       2.71822e+01      -6.38944e-01       6.50287e-04       4.78184e+02
  6.200      2.55524e+02       2.72238e+01      -1.02314e+00       6.43429e-04       4.71861e+02
  6.300      2.54821e+02       2.72498e+01      -1.39283e+00       6.36646e-04       4.65602e+02
  6.400      2.54106e+02       2.72645e+01      -1.73132e+00       6.29939e-04       4.59405e+02
  6.500      2.53378e+02       2.72724e+01      -2.02190e+00       6.23310e-04       4.53269e+02
  6.600      2.52635e+02       2.72779e+01      -2.24826e+00       6.16762e-04       4.47191e+02
  6.700      2.51876e+02       2.72844e+01      -2.40396e+00       6.10296e-04       4.41173e+02
  6.800      2.51104e+02       2.72948e+01      -2.49351e+00       6.03908e-04       4.35218e+02
  6.900      2.50320e+02       2.73117e+01      -2.52196e+00       5.97600e-04       4.29327e+02
  7.000      2.49526e+02       2.73377e+01      -2.49436e+00       5.91368e-04       4.23503e+02
  7.100      2.48725e+02       2.73755e+01      -2.41577e+00       5.85213e-04       4.17748e+02
  7.200      2.47917e+02       2.74278e+01      -2.29124e+00       5.79131e-04       4.12064e+02
  7.300      2.47105e+02       2.74973e+01      -2.12583e+00       5.73122e-04       4.06454e+02
  7.400      2.46291e+02       2.75867e+01      -1.92458e+00       5.67185e-04       4.00918e+02
  7.500      2.45477e+02       2.76983e+01      -1.69323e+00       5.61316e-04       3.95458e+02
  7.600      2.44663e+02       2.78336e+01      -1.44193e+00       5.55505e-04       3.90066e+02
  7.700      2.43848e+02       2.79931e+01      -1.18267e+00       5.49738e-04       3.84732e+02
  7.800      2.43034e+02       2.81778e+01      -9.27415e-01       5.44002e-04       3.79446e+02
  7.900      2.42220e+02       2.83883e+01      -6.88167e-01       5.38284e-04       3.74199e+02
  8.000      2.41406e+02       2.86254e+01      -4.76904e-01       5.32571e-04       3.68983e+02
  8.100      2.40591e+02       2.88899e+01      -3.05608e-01       5.26853e-04       3.63790e+02
  8.200      2.39777e+02       2.91824e+01      -1.86267e-01       5.21117e-04       3.58612e+02
  8.300      2.38962e+02       2.95039e+01      -1.30860e-01       5.15354e-04       3.53441e+02
  8.400      2.38148e+02       2.98549e+01      -1.51214e-01       5.09554e-04       3.48273e+02
  8.500      2.37334e+02       3.02329e+01      -2.49635e-01       5.03725e-04       3.43112e+02
  8.600      2.36522e+02       3.06305e+01      -4.13709e-01       4.97903e-04       3.37985e+02
  8.700      2.35713e+02       3.10395e+01      -6.29756e-01       4.92124e-04       3.32920e+02
  8.800      2.34908e+02       3.14521e+01      -8.84103e-01       4.86423e-04       3.27940e+02
  8.900      2.34109e+02       3.18603e+01      -1.16307e+00       4.80833e-04       3.23068e+02
  9.000      2.33317e+02       3.22561e+01      -1.45298e+00       4.75384e-04       3.18327e+02
  9.100      2.32534e+02       3.26315e+01      -1.74017e+00       4.70106e-04       3.13736e+02
  9.200      2.31761e+02       3.29786e+01      -2.01094e+00       4.65029e-04       3.09316e+02
  9.300      2.30999e+02       3.32893e+01      -2.25162e+00       4.60180e-04       3.05084e+02
  9.400      2.30249e+02       3.35558e+01      -2.44855e+00       4.55583e-04       3.01057e+02
  9.500      2.29514e+02       3.37709e+01      -2.58918e+00       4.51262e-04       2.97248e+02
  9.600      2.28793e+02       3.39359e+01      -2.67175e+00       4.47199e-04       2.93646e+02
  9.700      2.28086e+02       3.40564e+01      -2.70037e+00       4.43361e-04       2.90227e+02
  9.800      2.27393e+02       3.41383e+01      -2.67919e+00       4.39715e-04       2.86966e+02
  9.900      2.26715e+02       3.41874e+01      -2.61239e+00       4.36228e-04       2.83842e+02
 10.000      2.26051e+02       3.42094e+01      -2.50412e+00       4.32871e-04       2.80833e+02
 10.100      2.25402e+02       3.42101e+01      -2.35856e+00       4.29612e-04       2.77918e+02
 10.200      2.24768e+02       3.41953e+01      -2.17987e+00       4.26423e-04       2.75078e+02
 10.300      2.24147e+02       3.41709e+01      -1.97221e+00       4.23276e-04       2.72295e+02
 10.400      2.23542e+02       3.41425e+01      -1.73975e+00       4.20143e-04       2.69549e+02
 10.500      2.22951e+02       3.41160e+01      -1.48665e+00       4.16999e-04       2.66824e+02
 10.600      2.22374e+02       3.40972e+01      -1.21708e+00       4.13816e-04       2.64103e+02
 10.700      2.21812e+02       3.40919e+01      -9.35212e-01       4.10571e-04       2.61370e+02
 10.800      2.21265e+02       3.41057e+01      -6.45196e-01       4.07239e-04       2.58610e+02
 10.900      2.20733e+02       3.41446e+01      -3.51207e-01       4.03798e-04       2.55807e+02
 11.000      2.20215e+02       3.42143e+01      -5.74046e-02       4.00224e-04       2.52948e+02
 11.100      2.19712e+02       3.43206e+01       2.32044e-01       3.96497e-04       2.50020e+02
 11.200      2.19223e+02       3.44673e+01       5.13080e-01       3.92601e-04       2.47013e+02
 11.300      2.18751e+02       3.46504e+01       7.82105e-01       3.88536e-04       2.43929e+02
 11.400      2.18295e+02       3.48638e+01       1.03562e+00       3.84307e-04       2.40771e+02
 11.500      2.17856e+02       3.51013e+01       1.27015e+00       3.79921e-04       2.37544e+02
 11.600      2.17435e+02       3.53569e+01       1.48218e+00       3.75382e-04       2.34253e+02
 11.700      2.17033e+02       3.56245e+01       1.66824e+00       3.70697e-04       2.30902e+02
 11.800      2.16651e+02       3.58979e+01       1.82483e+00       3.65871e-04       2.27494e+02
 11.900      2.16289e+02       3.61711e+01       1.94847e+00       3.60911e-04       2.24036e+02
 12.000      2.15949e+02       3.64379e+01       2.03565e+00       3.55823e-04       2.20530e+02
 12.100      2.15632e+02       3.66923e+01       2.08290e+00       3.50614e-04       2.16982e+02
 12.200      2.15337e+02       3.69282e+01       2.08672e+00       3.45290e-04       2.13395e+02
 12.300      2.15067e+02       3.71394e+01       2.04361e+00       3.39858e-04       2.09774e+02
 12.400      2.14821e+02       3.73199e+01       1.95010e+00       3.34325e-04       2.06123e+02
 12.500      2.14601e+02       3.74635e+01       1.80269e+00       3.28698e-04       2.02447e+02
 12.600      2.14407e+02       3.75643e+01       1.59795e+00       3.22984e-04       1.98748e+02
 12.700      2.14239e+02       3.76191e+01       1.33658e+00       3.17200e-04       1.95035e+02
 12.800      2.14092e+02       3.76295e+01       1.02558e+00       3.11372e-04       1.91321e+02
 12.900      2.13963e+02       3.75976e+01       6.72459e-01       3.05527e-04       1.87617e+02
 13.000      2.13848e+02       3.75252e+01       2.84741e-01       2.99692e-04       1.83934e+02
 13.100      2.13742e+02       3.74143e+01      -1.30053e-01       2.93889e-04       1.80283e+02
 13.200      2.13641e+02       3.72669e+01      -5.64394e-01       2.88142e-04       1.76674e+02
 13.300      2.13541e+02       3.70849e+01      -1.01077e+00       2.82470e-04       1.73116e+02
 13.400      2.13439e+02       3.68703e+01      -1.46165e+00       2.76894e-04       1.69616e+02
 13.500      2.13329e+02       3.66251e+01      -1.90952e+00       2.71429e-04       1.66184e+02
 13.600      2.13209e+02       3.63512e+01      -2.34686e+00       2.66092e-04       1.62824e+02
 13.700      2.13074e+02       3.60506e+01      -2.76613e+00       2.60897e-04       1.59544e+02
 13.800      2.12919e+02       3.57252e+01      -3.15984e+00       2.55859e-04       1.56350e+02
 13.900      2.12742e+02       3.53770e+01      -3.52043e+00       2.50988e-04       1.53246e+02
 14.000      2.12537e+02       3.50080e+01      -3.84041e+00       2.46297e-04       1.50236e+02
 14.100      2.12301e+02       3.46200e+01      -4.11353e+00       2.41792e-04       1.47325e+02
 14.200      2.12037e+02       3.42145e+01      -4.34009e+00       2.37465e-04       1.44509e+02
 14.300      2.11746e+02       3.37928e+01      -4.52247e+00       2.33305e-04       1.41782e+02
 14.400      2.11432e+02       3.33562e+01      -4.66303e+00       2.29300e-04       1.39141e+02
 14.500      2.11098e+02       3.29062e+01      -4.76417e+00       2.25438e-04       1.36582e+02
 14.600      2.10746e+02       3.24440e+01      -4.82825e+00       2.21710e-04       1.34100e+02
 14.700      2.10379e+02       3.19710e+01      -4.85764e+00       2.18107e-04       1.31691e+02
 14.800      2.10001e+02       3.14884e+01      -4.85473e+00       2.14619e-04       1.29351e+02
 14.900      2.09613e+02       3.09977e+01      -4.82189e+00       2.11237e-04       1.27078e+02
 15.000      2.09220e+02       3.05002e+01      -4.76149e+00       2.07954e-04       1.24868e+02
 15.100      2.08823e+02       2.99971e+01      -4.67591e+00       2.04761e-04       1.22717e+02
 15.200      2.08425e+02       2.94899e+01      -4.56752e+00       2.01651e-04       1.20623e+02
 15.300      2.08030e+02       2.89798e+01      -4.43871e+00       1.98616e-04       1.18583e+02
 15.400      2.07640e+02       2.84682e+01      -4.29184e+00       1.95652e-04       1.16594e+02
 15.500      2.07259e+02       2.79565e+01      -4.12930e+00       1.92750e-04       1.14654e+02
 15.600      2.06888e+02       2.74459e+01      -3.95345e+00       1.89904e-04       1.12759e+02
 15.700      2.06532e+02       2.69378e+01      -3.76668e+00       1.87110e-04       1.10909e+02
 15.800      2.06192e+02       2.64335e+01      -3.57135e+00       1.84361e-04       1.09099e+02
 15.900      2.05871e+02       2.59344e+01      -3.36985e+00       1.81652e-04       1.07329e+02
 16.000      2.05573e+02       2.54417e+01      -3.16454e+00       1.78978e-04       1.05596e+02
 16.100      2.05301e+02       2.49569e+01      -2.95781e+00       1.76334e-04       1.03899e+02
 16.200      2.05056e+02       2.44813e+01      -2.75203e+00       1.73717e-04       1.02234e+02
 16.300      2.04843e+02       2.40162e+01      -2.54958e+00       1.71121e-04       1.00602e+02
 16.400      2.04663e+02       2.35628e+01      -2.35273e+00       1.68543e-04       9.89993e+01
 16.500      2.04518e+02       2.31213e+01      -2.16243e+00       1.65981e-04       9.74255e+01
 16.600      2.04405e+02       2.26914e+01      -1.97868e+00       1.63437e-04       9.58794e+01
 16.700      2.04325e+02       2.22725e+01      -1.80146e+00       1.60911e-04       9.43601e+01
 16.800      2.04275e+02       2.18640e+01      -1.63074e+00       1.58403e-04       9.28667e+01
 16.900      2.04254e+02       2.14655e+01      -1.46651e+00       1.55914e-04       9.13983e+01
 17.000      2.04262e+02       2.10764e+01      -1.30873e+00       1.53445e-04       8.99542e+01
 17.100      2.04297e+02       2.06962e+01      -1.15739e+00       1.50995e-04       8.85334e+01
 17.200      2.04358e+02       2.03245e+01      -1.01246e+00       1.48566e-04       8.71352e+01
 17.300      2.04444e+02       1.99607e+01      -8.73917e-01       1.46158e-04       8.57590e+01
 17.400      2.04553e+02       1.96043e+01      -7.41742e-01       1.43772e-04       8.44038e+01
 17.500      2.04685e+02       1.92548e+01      -6.15910e-01       1.41407e-04       8.30693e+01
 17.600      2.04838e+02       1.89116e+01      -4.96398e-01       1.39065e-04       8.17545e+01
 17.700      2.05012e+02       1.85743e+01      -3.83184e-01       1.36746e-04       8.04590e+01
 17.800      2.05204e+02       1.82424e+01      -2.76245e-01       1.34450e-04       7.91821e+01
 17.900      2.05413e+02       1.79153e+01      -1.75555e-01       1.32177e-04       7.79232e+01
 18.000      2.05640e+02       1.75925e+01      -8.10932e-02       1.29928e-04       7.66819e+01
 18.100      2.05882e+02       1.72735e+01       7.16403e-03       1.27703e-04       7.54574e+01
 18.200      2.06137e+02       1.69579e+01       8.92395e-02       1.25503e-04       7.42495e+01
 18.300      2.06406e+02       1.66451e+01       1.65155e-01       1.23327e-04       7.30575e+01
 18.400      2.06687e+02       1.63345e+01       2.34936e-01       1.21177e-04       7.18810e+01
 18.500      2.06978e+02       1.60257e+01       2.98604e-01       1.19051e-04       7.07196e+01
 18.600      2.07279e+02       1.57182e+01       3.56188e-01       1.16951e-04       6.95729e+01
 18.700      2.07588e+02       1.54117e+01       4.07922e-01       1.14876e-04       6.84407e+01
 18.800      2.07904e+02       1.51065e+01       4.54330e-01       1.12829e-04       6.73233e+01
 18.900      2.08226e+02       1.48028e+01       4.95960e-01       1.10810e-04       6.62211e+01
 19.000      2.08552e+02       1.45008e+01       5.33357e-01       1.08821e-04       6.51344e+01
 19.100      2.08881e+02       1.42007e+01       5.67067e-01       1.06863e-04       6.40632e+01
 19.200      2.09211e+02       1.39029e+01       5.97635e-01       1.04937e-04       6.30080e+01
 19.300      2.09542e+02       1.36074e+01       6.25608e-01       1.03044e-04       6.19689e+01
 19.400      2.09871e+02       1.33147e+01       6.51533e-01       1.01183e-04       6.09459e+01
 19.500      2.10199e+02       1.30248e+01       6.75954e-01       9.93575e-05       5.99394e+01
 19.600      2.10522e+02       1.27380e+01       6.99418e-01       9.75661e-05       5.89494e+01
 19.700      2.10841e+02       1.24545e+01       7.22471e-01       9.58101e-05       5.79760e+01
 19.800      2.11153e+02       1.21747e+01       7.45658e-01       9.40897e-05       5.70193e+01
 19.900      2.11458e+02       1.18986e+01       7.69526e-01       9.24054e-05       5.60794e+01
 20.000      2.11754e+02       1.16266e+01       7.94622e-01       9.07574e-05       5.51563e+01
 20.100      2.12039e+02       1.13588e+01       8.21489e-01       8.91459e-05       5.42499e+01
 20.200      2.12313e+02       1.10956e+01       8.50676e-01       8.75712e-05       5.33605e+01
 20.300      2.12574e+02       1.08371e+01       8.82726e-01       8.60335e-05       5.24879e+01
