# Data Source: NASA MERRA (version 2)
# Model Time = 2011-11-21 18:00:00
# Location = [  39.1026,  -84.5123 ]
# Fields = [ Z(km), T(K), U(m/s), V(m/s), R(g/cm3), P(mbar) ]
# Ground Height = 0.165
  0.000      2.85226e+02      -3.34679e+00      -1.32876e+00       1.24920e-03       1.02260e+03
  0.100      2.84554e+02      -3.40280e+00      -9.64949e-01       1.23720e-03       1.01038e+03
  0.200      2.83705e+02      -3.69945e+00      -8.24864e-01       1.22611e-03       9.98339e+02
  0.300      2.82884e+02      -3.95737e+00      -6.48768e-01       1.21501e-03       9.86436e+02
  0.400      2.82297e+02      -3.89718e+00      -1.76924e-01       1.20298e-03       9.74643e+02
  0.500      2.82107e+02      -3.30120e+00       7.47363e-01       1.18934e-03       9.62947e+02
  0.600      2.82337e+02      -2.17716e+00       1.90451e+00       1.17411e-03       9.51392e+02
  0.700      2.82934e+02      -6.09557e-01       3.00842e+00       1.15764e-03       9.40025e+02
  0.800      2.83619e+02       1.17059e+00       3.88486e+00       1.14109e-03       9.28833e+02
  0.900      2.84051e+02       2.89226e+00       4.41094e+00       1.12581e-03       9.17789e+02
  1.000      2.84155e+02       4.43653e+00       4.60062e+00       1.11201e-03       9.06876e+02
  1.100      2.84030e+02       5.78616e+00       4.55860e+00       1.09927e-03       8.96092e+02
  1.200      2.83751e+02       6.93595e+00       4.36796e+00       1.08727e-03       8.85433e+02
  1.300      2.83353e+02       7.89538e+00       4.07838e+00       1.07583e-03       8.74891e+02
  1.400      2.82867e+02       8.67503e+00       3.73704e+00       1.06483e-03       8.64461e+02
  1.500      2.82325e+02       9.28547e+00       3.39107e+00       1.05414e-03       8.54138e+02
  1.600      2.81757e+02       9.73804e+00       3.08600e+00       1.04362e-03       8.43916e+02
  1.700      2.81185e+02       1.00556e+01       2.84251e+00       1.03320e-03       8.33794e+02
  1.800      2.80623e+02       1.02701e+01       2.66199e+00       1.02283e-03       8.23773e+02
  1.900      2.80083e+02       1.04135e+01       2.54531e+00       1.01246e-03       8.13853e+02
  2.000      2.79579e+02       1.05180e+01       2.49336e+00       1.00205e-03       8.04035e+02
  2.100      2.79124e+02       1.06145e+01       2.50591e+00       9.91553e-04       7.94320e+02
  2.200      2.78713e+02       1.07162e+01       2.56506e+00       9.80998e-04       7.84707e+02
  2.300      2.78328e+02       1.08221e+01       2.63882e+00       9.70447e-04       7.75194e+02
  2.400      2.77950e+02       1.09308e+01       2.69481e+00       9.59963e-04       7.65780e+02
  2.500      2.77563e+02       1.10409e+01       2.70062e+00       9.49610e-04       7.56463e+02
  2.600      2.77146e+02       1.11511e+01       2.62416e+00       9.39446e-04       7.47243e+02
  2.700      2.76689e+02       1.12645e+01       2.45472e+00       9.29506e-04       7.38118e+02
  2.800      2.76190e+02       1.13921e+01       2.21790e+00       9.19790e-04       7.29087e+02
  2.900      2.75650e+02       1.15456e+01       1.94283e+00       9.10293e-04       7.20147e+02
  3.000      2.75068e+02       1.17366e+01       1.65859e+00       9.01009e-04       7.11298e+02
  3.100      2.74445e+02       1.19769e+01       1.39432e+00       8.91935e-04       7.02538e+02
  3.200      2.73780e+02       1.22767e+01       1.17678e+00       8.83063e-04       6.93866e+02
  3.300      2.73083e+02       1.26324e+01       1.00924e+00       8.74362e-04       6.85280e+02
  3.400      2.72367e+02       1.30322e+01       8.81406e-01       8.65786e-04       6.76780e+02
  3.500      2.71646e+02       1.34644e+01       7.82836e-01       8.57291e-04       6.68365e+02
  3.600      2.70933e+02       1.39171e+01       7.03079e-01       8.48834e-04       6.60033e+02
  3.700      2.70240e+02       1.43786e+01       6.31686e-01       8.40372e-04       6.51784e+02
  3.800      2.69581e+02       1.48377e+01       5.58643e-01       8.31870e-04       6.43616e+02
  3.900      2.68954e+02       1.52901e+01       4.77315e-01       8.23333e-04       6.35529e+02
  4.000      2.68352e+02       1.57342e+01       3.82667e-01       8.14785e-04       6.27524e+02
  4.100      2.67769e+02       1.61685e+01       2.69668e-01       8.06248e-04       6.19600e+02
  4.200      2.67199e+02       1.65916e+01       1.33288e-01       7.97745e-04       6.11759e+02
  4.300      2.66633e+02       1.70019e+01      -3.15010e-02       7.89297e-04       6.03999e+02
  4.400      2.66066e+02       1.73981e+01      -2.29549e-01       7.80924e-04       5.96321e+02
  4.500      2.65493e+02       1.77800e+01      -4.61197e-01       7.72640e-04       5.88725e+02
  4.600      2.64912e+02       1.81490e+01      -7.22038e-01       7.64449e-04       5.81209e+02
  4.700      2.64321e+02       1.85065e+01      -1.00744e+00       7.56357e-04       5.73772e+02
  4.800      2.63717e+02       1.88538e+01      -1.31277e+00       7.48367e-04       5.66414e+02
  4.900      2.63098e+02       1.91923e+01      -1.63340e+00       7.40485e-04       5.59134e+02
  5.000      2.62463e+02       1.95234e+01      -1.96468e+00       7.32714e-04       5.51930e+02
  5.100      2.61809e+02       1.98486e+01      -2.30211e+00       7.25058e-04       5.44802e+02
  5.200      2.61137e+02       2.01699e+01      -2.64216e+00       7.17513e-04       5.37749e+02
  5.300      2.60449e+02       2.04897e+01      -2.98184e+00       7.10071e-04       5.30770e+02
  5.400      2.59748e+02       2.08104e+01      -3.31820e+00       7.02725e-04       5.23864e+02
  5.500      2.59034e+02       2.11343e+01      -3.64826e+00       6.95467e-04       5.17030e+02
  5.600      2.58312e+02       2.14638e+01      -3.96905e+00       6.88290e-04       5.10268e+02
  5.700      2.57582e+02       2.18013e+01      -4.27759e+00       6.81187e-04       5.03575e+02
  5.800      2.56847e+02       2.21496e+01      -4.57091e+00       6.74152e-04       4.96952e+02
  5.900      2.56110e+02       2.25191e+01      -4.84557e+00       6.67176e-04       4.90398e+02
  6.000      2.55373e+02       2.29295e+01      -5.09763e+00       6.60251e-04       4.83911e+02
  6.100      2.54640e+02       2.34008e+01      -5.32316e+00       6.53366e-04       4.77491e+02
  6.200      2.53914e+02       2.39528e+01      -5.51818e+00       6.46515e-04       4.71137e+02
  6.300      2.53198e+02       2.46057e+01      -5.67876e+00       6.39688e-04       4.64847e+02
  6.400      2.52495e+02       2.53793e+01      -5.80093e+00       6.32877e-04       4.58622e+02
  6.500      2.51808e+02       2.62936e+01      -5.88074e+00       6.26076e-04       4.52459e+02
  6.600      2.51141e+02       2.73667e+01      -5.91412e+00       6.19275e-04       4.46358e+02
  6.700      2.50492e+02       2.85877e+01      -5.89532e+00       6.12482e-04       4.40321e+02
  6.800      2.49859e+02       2.99235e+01      -5.81722e+00       6.05707e-04       4.34350e+02
  6.900      2.49238e+02       3.13402e+01      -5.67272e+00       5.98965e-04       4.28447e+02
  7.000      2.48626e+02       3.28041e+01      -5.45469e+00       5.92267e-04       4.22616e+02
  7.100      2.48019e+02       3.42814e+01      -5.15601e+00       5.85626e-04       4.16858e+02
  7.200      2.47415e+02       3.57383e+01      -4.76956e+00       5.79052e-04       4.11175e+02
  7.300      2.46811e+02       3.71410e+01      -4.28821e+00       5.72557e-04       4.05569e+02
  7.400      2.46202e+02       3.84557e+01      -3.70484e+00       5.66152e-04       4.00042e+02
  7.500      2.45586e+02       3.96553e+01      -3.01594e+00       5.59841e-04       3.94594e+02
  7.600      2.44963e+02       4.07398e+01      -2.23271e+00       5.53615e-04       3.89216e+02
  7.700      2.44333e+02       4.17161e+01      -1.37014e+00       5.47460e-04       3.83899e+02
  7.800      2.43696e+02       4.25912e+01      -4.43225e-01       5.41363e-04       3.78632e+02
  7.900      2.43051e+02       4.33718e+01       5.33050e-01       5.35309e-04       3.73408e+02
  8.000      2.42399e+02       4.40651e+01       1.54370e+00       5.29288e-04       3.68218e+02
  8.100      2.41740e+02       4.46778e+01       2.57374e+00       5.23286e-04       3.63053e+02
  8.200      2.41075e+02       4.52170e+01       3.60817e+00       5.17294e-04       3.57907e+02
  8.300      2.40402e+02       4.56895e+01       4.63201e+00       5.11300e-04       3.52773e+02
  8.400      2.39722e+02       4.61023e+01       5.63038e+00       5.05294e-04       3.47643e+02
  8.500      2.39036e+02       4.64623e+01       6.59119e+00       4.99289e-04       3.42529e+02
  8.600      2.38344e+02       4.67761e+01       7.50548e+00       4.93321e-04       3.37454e+02
  8.700      2.37647e+02       4.70507e+01       8.36442e+00       4.87422e-04       3.32445e+02
  8.800      2.36947e+02       4.72927e+01       9.15924e+00       4.81625e-04       3.27522e+02
  8.900      2.36243e+02       4.75090e+01       9.88110e+00       4.75962e-04       3.22710e+02
  9.000      2.35537e+02       4.77063e+01       1.05212e+01       4.70461e-04       3.18028e+02
  9.100      2.34830e+02       4.78914e+01       1.10708e+01       4.65152e-04       3.13495e+02
  9.200      2.34122e+02       4.80711e+01       1.15210e+01       4.60060e-04       3.09129e+02
  9.300      2.33415e+02       4.82522e+01       1.18631e+01       4.55212e-04       3.04947e+02
  9.400      2.32709e+02       4.84413e+01       1.20881e+01       4.50632e-04       3.00965e+02
  9.500      2.32005e+02       4.86449e+01       1.21886e+01       4.46340e-04       2.97197e+02
  9.600      2.31302e+02       4.88651e+01       1.21673e+01       4.42320e-04       2.93628e+02
  9.700      2.30600e+02       4.91018e+01       1.20323e+01       4.38542e-04       2.90236e+02
  9.800      2.29897e+02       4.93550e+01       1.17916e+01       4.34975e-04       2.86998e+02
  9.900      2.29192e+02       4.96246e+01       1.14536e+01       4.31589e-04       2.83891e+02
 10.000      2.28484e+02       4.99107e+01       1.10263e+01       4.28358e-04       2.80896e+02
 10.100      2.27772e+02       5.02131e+01       1.05178e+01       4.25253e-04       2.77990e+02
 10.200      2.27055e+02       5.05319e+01       9.93642e+00       4.22248e-04       2.75157e+02
 10.300      2.26332e+02       5.08669e+01       9.29020e+00       4.19317e-04       2.72377e+02
 10.400      2.25601e+02       5.12182e+01       8.58731e+00       4.16436e-04       2.69632e+02
 10.500      2.24862e+02       5.15857e+01       7.83589e+00       4.13581e-04       2.66906e+02
 10.600      2.24113e+02       5.19693e+01       7.04412e+00       4.10728e-04       2.64182e+02
 10.700      2.23353e+02       5.23691e+01       6.22013e+00       4.07855e-04       2.61445e+02
 10.800      2.22582e+02       5.27850e+01       5.37207e+00       4.04939e-04       2.58679e+02
 10.900      2.21797e+02       5.32169e+01       4.50811e+00       4.01959e-04       2.55871e+02
 11.000      2.20999e+02       5.36648e+01       3.63638e+00       3.98894e-04       2.53005e+02
 11.100      2.20185e+02       5.41286e+01       2.76503e+00       3.95725e-04       2.50071e+02
 11.200      2.19356e+02       5.46071e+01       1.90151e+00       3.92434e-04       2.47058e+02
 11.300      2.18517e+02       5.50932e+01       1.05011e+00       3.89010e-04       2.43966e+02
 11.400      2.17676e+02       5.55785e+01       2.14325e-01       3.85444e-04       2.40799e+02
 11.500      2.16839e+02       5.60547e+01      -6.02390e-01       3.81729e-04       2.37560e+02
 11.600      2.16013e+02       5.65132e+01      -1.39655e+00       3.77856e-04       2.34254e+02
 11.700      2.15204e+02       5.69456e+01      -2.16466e+00       3.73818e-04       2.30883e+02
 11.800      2.14420e+02       5.73435e+01      -2.90327e+00       3.69609e-04       2.27452e+02
 11.900      2.13668e+02       5.76984e+01      -3.60888e+00       3.65223e-04       2.23964e+02
 12.000      2.12954e+02       5.80019e+01      -4.27804e+00       3.60654e-04       2.20423e+02
 12.100      2.12285e+02       5.82455e+01      -4.90725e+00       3.55898e-04       2.16833e+02
 12.200      2.11668e+02       5.84208e+01      -5.49303e+00       3.50950e-04       2.13198e+02
 12.300      2.11111e+02       5.85194e+01      -6.03193e+00       3.45809e-04       2.09522e+02
 12.400      2.10619e+02       5.85328e+01      -6.52045e+00       3.40472e-04       2.05807e+02
 12.500      2.10200e+02       5.84526e+01      -6.95512e+00       3.34939e-04       2.02060e+02
 12.600      2.09860e+02       5.82705e+01      -7.33255e+00       3.29210e-04       1.98283e+02
 12.700      2.09600e+02       5.79863e+01      -7.65179e+00       3.23307e-04       1.94485e+02
 12.800      2.09412e+02       5.76080e+01      -7.91466e+00       3.17270e-04       1.90683e+02
 12.900      2.09289e+02       5.71444e+01      -8.12311e+00       3.11141e-04       1.86890e+02
 13.000      2.09224e+02       5.66043e+01      -8.27911e+00       3.04958e-04       1.83119e+02
 13.100      2.09210e+02       5.59963e+01      -8.38461e+00       2.98757e-04       1.79383e+02
 13.200      2.09238e+02       5.53292e+01      -8.44159e+00       2.92573e-04       1.75694e+02
 13.300      2.09302e+02       5.46116e+01      -8.45199e+00       2.86435e-04       1.72061e+02
 13.400      2.09394e+02       5.38523e+01      -8.41779e+00       2.80375e-04       1.68494e+02
 13.500      2.09507e+02       5.30601e+01      -8.34093e+00       2.74417e-04       1.65003e+02
 13.600      2.09633e+02       5.22436e+01      -8.22338e+00       2.68587e-04       1.61594e+02
 13.700      2.09765e+02       5.14115e+01      -8.06711e+00       2.62907e-04       1.58276e+02
 13.800      2.09895e+02       5.05726e+01      -7.87407e+00       2.57397e-04       1.55055e+02
 13.900      2.10017e+02       4.97355e+01      -7.64623e+00       2.52074e-04       1.51937e+02
 14.000      2.10122e+02       4.89090e+01      -7.38554e+00       2.46956e-04       1.48927e+02
 14.100      2.10207e+02       4.80982e+01      -7.09430e+00       2.42046e-04       1.46025e+02
 14.200      2.10273e+02       4.73034e+01      -6.77523e+00       2.37333e-04       1.43226e+02
 14.300      2.10319e+02       4.65243e+01      -6.43111e+00       2.32804e-04       1.40524e+02
 14.400      2.10348e+02       4.57609e+01      -6.06471e+00       2.28449e-04       1.37914e+02
 14.500      2.10361e+02       4.50129e+01      -5.67879e+00       2.24256e-04       1.35391e+02
 14.600      2.10357e+02       4.42802e+01      -5.27612e+00       2.20215e-04       1.32949e+02
 14.700      2.10339e+02       4.35627e+01      -4.85949e+00       2.16318e-04       1.30585e+02
 14.800      2.10307e+02       4.28601e+01      -4.43164e+00       2.12555e-04       1.28294e+02
 14.900      2.10262e+02       4.21724e+01      -3.99536e+00       2.08918e-04       1.26071e+02
 15.000      2.10205e+02       4.14994e+01      -3.55341e+00       2.05398e-04       1.23914e+02
 15.100      2.10137e+02       4.08408e+01      -3.10857e+00       2.01988e-04       1.21817e+02
 15.200      2.10060e+02       4.01966e+01      -2.66360e+00       1.98681e-04       1.19779e+02
 15.300      2.09973e+02       3.95666e+01      -2.22126e+00       1.95470e-04       1.17795e+02
 15.400      2.09879e+02       3.89506e+01      -1.78435e+00       1.92348e-04       1.15861e+02
 15.500      2.09777e+02       3.83485e+01      -1.35561e+00       1.89310e-04       1.13976e+02
 15.600      2.09670e+02       3.77601e+01      -9.37821e-01       1.86350e-04       1.12137e+02
 15.700      2.09558e+02       3.71852e+01      -5.33757e-01       1.83462e-04       1.10339e+02
 15.800      2.09441e+02       3.66237e+01      -1.46180e-01       1.80640e-04       1.08582e+02
 15.900      2.09322e+02       3.60754e+01       2.22135e-01       1.77881e-04       1.06862e+02
 16.000      2.09200e+02       3.55401e+01       5.68423e-01       1.75178e-04       1.05178e+02
 16.100      2.09078e+02       3.50178e+01       8.89913e-01       1.72528e-04       1.03526e+02
 16.200      2.08955e+02       3.45082e+01       1.18383e+00       1.69927e-04       1.01905e+02
 16.300      2.08833e+02       3.40112e+01       1.44741e+00       1.67369e-04       1.00313e+02
 16.400      2.08713e+02       3.35266e+01       1.67824e+00       1.64852e-04       9.87478e+01
 16.500      2.08596e+02       3.30534e+01       1.87649e+00       1.62374e-04       9.72084e+01
 16.600      2.08481e+02       3.25908e+01       2.04351e+00       1.59932e-04       9.56938e+01
 16.700      2.08370e+02       3.21375e+01       2.18064e+00       1.57525e-04       9.42034e+01
 16.800      2.08263e+02       3.16926e+01       2.28922e+00       1.55151e-04       9.27364e+01
 16.900      2.08161e+02       3.12549e+01       2.37061e+00       1.52810e-04       9.12920e+01
 17.000      2.08063e+02       3.08234e+01       2.42615e+00       1.50500e-04       8.98695e+01
 17.100      2.07971e+02       3.03970e+01       2.45717e+00       1.48219e-04       8.84682e+01
 17.200      2.07885e+02       2.99747e+01       2.46503e+00       1.45966e-04       8.70875e+01
 17.300      2.07805e+02       2.95554e+01       2.45108e+00       1.43740e-04       8.57267e+01
 17.400      2.07732e+02       2.91380e+01       2.41665e+00       1.41541e-04       8.43853e+01
 17.500      2.07667e+02       2.87215e+01       2.36310e+00       1.39366e-04       8.30626e+01
 17.600      2.07610e+02       2.83048e+01       2.29177e+00       1.37215e-04       8.17581e+01
 17.700      2.07561e+02       2.78868e+01       2.20400e+00       1.35087e-04       8.04713e+01
 17.800      2.07521e+02       2.74664e+01       2.10114e+00       1.32981e-04       7.92016e+01
 17.900      2.07491e+02       2.70426e+01       1.98453e+00       1.30896e-04       7.79486e+01
 18.000      2.07471e+02       2.66143e+01       1.85553e+00       1.28832e-04       7.67118e+01
 18.100      2.07461e+02       2.61805e+01       1.71547e+00       1.26787e-04       7.54907e+01
 18.200      2.07462e+02       2.57401e+01       1.56570e+00       1.24761e-04       7.42849e+01
 18.300      2.07475e+02       2.52920e+01       1.40757e+00       1.22754e-04       7.30940e+01
 18.400      2.07500e+02       2.48351e+01       1.24242e+00       1.20763e-04       7.19177e+01
 18.500      2.07537e+02       2.43684e+01       1.07159e+00       1.18790e-04       7.07554e+01
 18.600      2.07588e+02       2.38908e+01       8.96433e-01       1.16834e-04       6.96070e+01
 18.700      2.07651e+02       2.34025e+01       7.18133e-01       1.14894e-04       6.84723e+01
 18.800      2.07727e+02       2.29052e+01       5.37642e-01       1.12973e-04       6.73517e+01
 18.900      2.07814e+02       2.24009e+01       3.55887e-01       1.11071e-04       6.62456e+01
 19.000      2.07910e+02       2.18915e+01       1.73800e-01       1.09190e-04       6.51543e+01
 19.100      2.08017e+02       2.13790e+01      -7.68530e-03       1.07332e-04       6.40781e+01
 19.200      2.08131e+02       2.08653e+01      -1.87638e-01       1.05497e-04       6.30174e+01
 19.300      2.08253e+02       2.03524e+01      -3.65124e-01       1.03687e-04       6.19723e+01
 19.400      2.08381e+02       1.98423e+01      -5.39218e-01       1.01902e-04       6.09431e+01
 19.500      2.08515e+02       1.93368e+01      -7.08985e-01       1.00144e-04       5.99301e+01
 19.600      2.08653e+02       1.88380e+01      -8.73494e-01       9.84133e-05       5.89333e+01
 19.700      2.08795e+02       1.83478e+01      -1.03181e+00       9.67104e-05       5.79529e+01
 19.800      2.08940e+02       1.78681e+01      -1.18301e+00       9.50362e-05       5.69891e+01
 19.900      2.09086e+02       1.74009e+01      -1.32616e+00       9.33913e-05       5.60420e+01
 20.000      2.09233e+02       1.69482e+01      -1.46032e+00       9.17763e-05       5.51115e+01
 20.100      2.09380e+02       1.65119e+01      -1.58456e+00       9.01917e-05       5.41979e+01
 20.200      2.09525e+02       1.60939e+01      -1.69796e+00       8.86376e-05       5.33012e+01
 20.300      2.09669e+02       1.56962e+01      -1.79958e+00       8.71148e-05       5.24213e+01
