# Data Source: NASA GEOS5 Near-Real-Time
# Model Time = 2010-04-20 18:00:00
# Location = [  39.7393, -104.9900 ]
# Fields = [ Z(km), T(K), U(m/s), V(m/s), R(g/cm3), P(mbar) ]
# Ground Height = 1.589
  0.000      2.95866e+02      -3.00502e-01      -1.62878e+00       1.19261e-03       1.01269e+03
  0.100      2.95235e+02      -3.09821e-01      -1.64393e+00       1.18118e-03       1.00084e+03
  0.200      2.94604e+02      -3.19186e-01      -1.66083e+00       1.16985e-03       9.89124e+02
  0.300      2.93960e+02      -3.27962e-01      -1.65477e+00       1.15869e-03       9.77543e+02
  0.400      2.93291e+02      -3.34576e-01      -1.60817e+00       1.14772e-03       9.66089e+02
  0.500      2.92612e+02      -3.30047e-01      -1.55997e+00       1.13689e-03       9.54754e+02
  0.600      2.91951e+02      -3.03138e-01      -1.57204e+00       1.12606e-03       9.43527e+02
  0.700      2.91306e+02      -2.63349e-01      -1.64144e+00       1.11526e-03       9.32412e+02
  0.800      2.90650e+02      -2.36817e-01      -1.71269e+00       1.10460e-03       9.21418e+02
  0.900      2.89973e+02      -2.31053e-01      -1.75635e+00       1.09412e-03       9.10548e+02
  1.000      2.89293e+02      -2.23432e-01      -1.78646e+00       1.08373e-03       8.99791e+02
  1.100      2.88629e+02      -1.97355e-01      -1.81565e+00       1.07336e-03       8.89137e+02
  1.200      2.87996e+02      -1.68961e-01      -1.83673e+00       1.06296e-03       8.78592e+02
  1.300      2.87403e+02      -1.60379e-01      -1.83868e+00       1.05251e-03       8.68161e+02
  1.400      2.86812e+02      -1.72957e-01      -1.82112e+00       1.04215e-03       8.57847e+02
  1.500      2.86154e+02      -1.94286e-01      -1.79074e+00       1.03213e-03       8.47648e+02
  1.600      2.85382e+02      -2.12808e-01      -1.75904e+00       1.02260e-03       8.37558e+02
  1.700      2.84493e+02      -2.19194e-01      -1.74712e+00       1.01356e-03       8.27566e+02
  1.800      2.83499e+02      -2.03328e-01      -1.77607e+00       1.00494e-03       8.17662e+02
  1.900      2.82467e+02      -1.45593e-01      -1.85634e+00       9.96501e-04       8.07842e+02
  2.000      2.81495e+02      -2.14171e-02      -1.99274e+00       9.87896e-04       7.98111e+02
  2.100      2.80662e+02       1.82174e-01      -2.17980e+00       9.78859e-04       7.88472e+02
  2.200      2.80004e+02       4.51805e-01      -2.38894e+00       9.69286e-04       7.78929e+02
  2.300      2.79543e+02       7.70308e-01      -2.58991e+00       9.59114e-04       7.69486e+02
  2.400      2.79253e+02       1.11791e+00      -2.77683e+00       9.48457e-04       7.60148e+02
  2.500      2.79067e+02       1.47273e+00      -2.96329e+00       9.37566e-04       7.50919e+02
  2.600      2.78918e+02       1.81518e+00      -3.16274e+00       9.26680e-04       7.41802e+02
  2.700      2.78746e+02       2.13825e+00      -3.38502e+00       9.15992e-04       7.32795e+02
  2.800      2.78496e+02       2.43919e+00      -3.63874e+00       9.05676e-04       7.23893e+02
  2.900      2.78125e+02       2.71810e+00      -3.92400e+00       8.95857e-04       7.15091e+02
  3.000      2.77622e+02       2.98294e+00      -4.21748e+00       8.86550e-04       7.06381e+02
  3.100      2.76982e+02       3.24297e+00      -4.49188e+00       8.77749e-04       6.97757e+02
  3.200      2.76218e+02       3.50413e+00      -4.72665e+00       8.69399e-04       6.89213e+02
  3.300      2.75378e+02       3.76596e+00      -4.91398e+00       8.61344e-04       6.80749e+02
  3.400      2.74510e+02       4.02735e+00      -5.04758e+00       8.53424e-04       6.72366e+02
  3.500      2.73660e+02       4.28876e+00      -5.12980e+00       8.45505e-04       6.64063e+02
  3.600      2.72856e+02       4.55328e+00      -5.17703e+00       8.37495e-04       6.55839e+02
  3.700      2.72128e+02       4.82413e+00      -5.20697e+00       8.29307e-04       6.47694e+02
  3.800      2.71480e+02       5.09708e+00      -5.24070e+00       8.20933e-04       6.39628e+02
  3.900      2.70874e+02       5.35475e+00      -5.30524e+00       8.12500e-04       6.31644e+02
  4.000      2.70266e+02       5.57842e+00      -5.42816e+00       8.04142e-04       6.23743e+02
  4.100      2.69621e+02       5.76210e+00      -5.61869e+00       7.95964e-04       6.15926e+02
  4.200      2.68922e+02       5.93158e+00      -5.84010e+00       7.88005e-04       6.08188e+02
  4.300      2.68158e+02       6.11753e+00      -6.04864e+00       7.80294e-04       6.00525e+02
  4.400      2.67321e+02       6.34418e+00      -6.20628e+00       7.72841e-04       5.92933e+02
  4.500      2.66431e+02       6.60423e+00      -6.30323e+00       7.65585e-04       5.85411e+02
  4.600      2.65517e+02       6.88066e+00      -6.33836e+00       7.58444e-04       5.77961e+02
  4.700      2.64606e+02       7.15653e+00      -6.31063e+00       7.51340e-04       5.70582e+02
  4.800      2.63706e+02       7.41614e+00      -6.21990e+00       7.44251e-04       5.63275e+02
  4.900      2.62808e+02       7.64472e+00      -6.06675e+00       7.37196e-04       5.56038e+02
  5.000      2.61907e+02       7.82757e+00      -5.85181e+00       7.30196e-04       5.48868e+02
  5.100      2.60997e+02       7.95707e+00      -5.58337e+00       7.23258e-04       5.41765e+02
  5.200      2.60086e+02       8.04347e+00      -5.28900e+00       7.16366e-04       5.34730e+02
  5.300      2.59181e+02       8.09973e+00      -4.99927e+00       7.09499e-04       5.27760e+02
  5.400      2.58289e+02       8.13891e+00      -4.74354e+00       7.02638e-04       5.20858e+02
  5.500      2.57417e+02       8.17497e+00      -4.53385e+00       6.95767e-04       5.14023e+02
  5.600      2.56569e+02       8.22260e+00      -4.36891e+00       6.88875e-04       5.07255e+02
  5.700      2.55751e+02       8.29649e+00      -4.24709e+00       6.81951e-04       5.00555e+02
  5.800      2.54966e+02       8.40713e+00      -4.16597e+00       6.74987e-04       4.93923e+02
  5.900      2.54213e+02       8.54344e+00      -4.11905e+00       6.67990e-04       4.87360e+02
  6.000      2.53489e+02       8.68740e+00      -4.09853e+00       6.60970e-04       4.80865e+02
  6.100      2.52790e+02       8.82100e+00      -4.09661e+00       6.53939e-04       4.74438e+02
  6.200      2.52112e+02       8.93080e+00      -4.10385e+00       6.46909e-04       4.68079e+02
  6.300      2.51449e+02       9.01746e+00      -4.10589e+00       6.39900e-04       4.61789e+02
  6.400      2.50791e+02       9.08433e+00      -4.08740e+00       6.32934e-04       4.55567e+02
  6.500      2.50132e+02       9.13477e+00      -4.03306e+00       6.26030e-04       4.49414e+02
  6.600      2.49465e+02       9.17238e+00      -3.93213e+00       6.19205e-04       4.43329e+02
  6.700      2.48786e+02       9.20151e+00      -3.78778e+00       6.12468e-04       4.37312e+02
  6.800      2.48091e+02       9.22663e+00      -3.60576e+00       6.05825e-04       4.31360e+02
  6.900      2.47377e+02       9.25223e+00      -3.39181e+00       5.99281e-04       4.25472e+02
  7.000      2.46641e+02       9.28256e+00      -3.15133e+00       5.92842e-04       4.19648e+02
  7.100      2.45884e+02       9.32083e+00      -2.88800e+00       5.86502e-04       4.13886e+02
  7.200      2.45109e+02       9.36987e+00      -2.60491e+00       5.80252e-04       4.08186e+02
  7.300      2.44319e+02       9.43253e+00      -2.30517e+00       5.74084e-04       4.02545e+02
  7.400      2.43515e+02       9.51155e+00      -1.99265e+00       5.67992e-04       3.96963e+02
  7.500      2.42701e+02       9.60776e+00      -1.68555e+00       5.61968e-04       3.91440e+02
  7.600      2.41878e+02       9.72026e+00      -1.41484e+00       5.56008e-04       3.85975e+02
  7.700      2.41048e+02       9.84812e+00      -1.21189e+00       5.50107e-04       3.80568e+02
  7.800      2.40213e+02       9.99038e+00      -1.10810e+00       5.44261e-04       3.75219e+02
  7.900      2.39375e+02       1.01469e+01      -1.12634e+00       5.38465e-04       3.69929e+02
  8.000      2.38537e+02       1.03210e+01      -1.25084e+00       5.32711e-04       3.64695e+02
  8.100      2.37703e+02       1.05171e+01      -1.45492e+00       5.26993e-04       3.59518e+02
  8.200      2.36874e+02       1.07395e+01      -1.71189e+00       5.21302e-04       3.54397e+02
  8.300      2.36056e+02       1.09926e+01      -1.99509e+00       5.15632e-04       3.49330e+02
  8.400      2.35250e+02       1.12774e+01      -2.28062e+00       5.09975e-04       3.44318e+02
  8.500      2.34461e+02       1.15856e+01      -2.55211e+00       5.04323e-04       3.39361e+02
  8.600      2.33695e+02       1.19077e+01      -2.79448e+00       4.98668e-04       3.34459e+02
  8.700      2.32956e+02       1.22338e+01      -2.99260e+00       4.93002e-04       3.29613e+02
  8.800      2.32248e+02       1.25543e+01      -3.13138e+00       4.87318e-04       3.24823e+02
  8.900      2.31574e+02       1.28599e+01      -3.20443e+00       4.81615e-04       3.20090e+02
  9.000      2.30922e+02       1.31425e+01      -3.23648e+00       4.75918e-04       3.15412e+02
  9.100      2.30277e+02       1.33944e+01      -3.25925e+00       4.70255e-04       3.10789e+02
  9.200      2.29627e+02       1.36079e+01      -3.30444e+00       4.64656e-04       3.06222e+02
  9.300      2.28957e+02       1.37752e+01      -3.40377e+00       4.59146e-04       3.01707e+02
  9.400      2.28254e+02       1.38889e+01      -3.58731e+00       4.53751e-04       2.97246e+02
  9.500      2.27516e+02       1.39456e+01      -3.86245e+00       4.48470e-04       2.92838e+02
  9.600      2.26751e+02       1.39451e+01      -4.21993e+00       4.43287e-04       2.88481e+02
  9.700      2.25967e+02       1.38871e+01      -4.65012e+00       4.38186e-04       2.84175e+02
  9.800      2.25170e+02       1.37714e+01      -5.14338e+00       4.33150e-04       2.79918e+02
  9.900      2.24369e+02       1.35977e+01      -5.69007e+00       4.28164e-04       2.75711e+02
 10.000      2.23569e+02       1.33695e+01      -6.27874e+00       4.23214e-04       2.71553e+02
 10.100      2.22778e+02       1.31151e+01      -6.88560e+00       4.18289e-04       2.67442e+02
 10.200      2.22000e+02       1.28731e+01      -7.48178e+00       4.13380e-04       2.63380e+02
 10.300      2.21240e+02       1.26821e+01      -8.03842e+00       4.08479e-04       2.59367e+02
 10.400      2.20504e+02       1.25807e+01      -8.52663e+00       4.03577e-04       2.55402e+02
 10.500      2.19797e+02       1.26075e+01      -8.91755e+00       3.98667e-04       2.51486e+02
 10.600      2.19123e+02       1.27981e+01      -9.18439e+00       3.93741e-04       2.47618e+02
 10.700      2.18482e+02       1.31474e+01      -9.32975e+00       3.88805e-04       2.43798e+02
 10.800      2.17868e+02       1.36201e+01      -9.37781e+00       3.83868e-04       2.40026e+02
 10.900      2.17276e+02       1.41801e+01      -9.35324e+00       3.78943e-04       2.36302e+02
 11.000      2.16699e+02       1.47915e+01      -9.28071e+00       3.74039e-04       2.32625e+02
 11.100      2.16132e+02       1.54183e+01      -9.18491e+00       3.69168e-04       2.28994e+02
 11.200      2.15569e+02       1.60244e+01      -9.09052e+00       3.64339e-04       2.25410e+02
 11.300      2.15008e+02       1.65777e+01      -9.01937e+00       3.59557e-04       2.21873e+02
 11.400      2.14459e+02       1.70674e+01      -8.97712e+00       3.54805e-04       2.18382e+02
 11.500      2.13940e+02       1.74905e+01      -8.96379e+00       3.50058e-04       2.14938e+02
 11.600      2.13466e+02       1.78437e+01      -8.97934e+00       3.45292e-04       2.11542e+02
 11.700      2.13055e+02       1.81240e+01      -9.02377e+00       3.40484e-04       2.08195e+02
 11.800      2.12722e+02       1.83282e+01      -9.09707e+00       3.35613e-04       2.04897e+02
 11.900      2.12485e+02       1.84532e+01      -9.19922e+00       3.30660e-04       2.01647e+02
 12.000      2.12359e+02       1.84964e+01      -9.33003e+00       3.25606e-04       1.98447e+02
 12.100      2.12343e+02       1.84672e+01      -9.48474e+00       3.20462e-04       1.95297e+02
 12.200      2.12415e+02       1.83875e+01      -9.65389e+00       3.15268e-04       1.92197e+02
 12.300      2.12555e+02       1.82797e+01      -9.82783e+00       3.10058e-04       1.89145e+02
 12.400      2.12741e+02       1.81664e+01      -9.99687e+00       3.04870e-04       1.86143e+02
 12.500      2.12953e+02       1.80701e+01      -1.01513e+01       2.99735e-04       1.83190e+02
 12.600      2.13168e+02       1.80131e+01      -1.02816e+01       2.94683e-04       1.80285e+02
 12.700      2.13367e+02       1.80180e+01      -1.03779e+01       2.89744e-04       1.77429e+02
 12.800      2.13527e+02       1.81073e+01      -1.04306e+01       2.84944e-04       1.74620e+02
 12.900      2.13635e+02       1.82909e+01      -1.04341e+01       2.80298e-04       1.71859e+02
 13.000      2.13692e+02       1.85459e+01      -1.03929e+01       2.75795e-04       1.69144e+02
 13.100      2.13706e+02       1.88438e+01      -1.03137e+01       2.71424e-04       1.66474e+02
 13.200      2.13681e+02       1.91560e+01      -1.02029e+01       2.67172e-04       1.63848e+02
 13.300      2.13625e+02       1.94541e+01      -1.00671e+01       2.63028e-04       1.61263e+02
 13.400      2.13542e+02       1.97095e+01      -9.91264e+00       2.58979e-04       1.58720e+02
 13.500      2.13439e+02       1.98937e+01      -9.74610e+00       2.55017e-04       1.56216e+02
 13.600      2.13322e+02       1.99782e+01      -9.57396e+00       2.51131e-04       1.53751e+02
 13.700      2.13196e+02       1.99345e+01      -9.40272e+00       2.47312e-04       1.51324e+02
 13.800      2.13068e+02       1.97348e+01      -9.23872e+00       2.43551e-04       1.48933e+02
 13.900      2.12941e+02       1.93743e+01      -9.08433e+00       2.39843e-04       1.46577e+02
 14.000      2.12816e+02       1.88745e+01      -8.93731e+00       2.36184e-04       1.44257e+02
 14.100      2.12696e+02       1.82582e+01      -8.79518e+00       2.32573e-04       1.41971e+02
 14.200      2.12582e+02       1.75482e+01      -8.65545e+00       2.29006e-04       1.39719e+02
 14.300      2.12474e+02       1.67675e+01      -8.51563e+00       2.25483e-04       1.37500e+02
 14.400      2.12375e+02       1.59389e+01      -8.37326e+00       2.22000e-04       1.35313e+02
 14.500      2.12286e+02       1.50852e+01      -8.22583e+00       2.18557e-04       1.33158e+02
 14.600      2.12208e+02       1.42293e+01      -8.07086e+00       2.15151e-04       1.31035e+02
 14.700      2.12143e+02       1.33940e+01      -7.90588e+00       2.11780e-04       1.28942e+02
 14.800      2.12092e+02       1.26023e+01      -7.72840e+00       2.08443e-04       1.26880e+02
 14.900      2.12056e+02       1.18769e+01      -7.53593e+00       2.05138e-04       1.24847e+02
 15.000      2.12037e+02       1.12347e+01      -7.32709e+00       2.01864e-04       1.22844e+02
 15.100      2.12033e+02       1.06730e+01      -7.10398e+00       1.98625e-04       1.20871e+02
 15.200      2.12043e+02       1.01853e+01      -6.86942e+00       1.95424e-04       1.18928e+02
 15.300      2.12064e+02       9.76517e+00      -6.62621e+00       1.92262e-04       1.17016e+02
 15.400      2.12097e+02       9.40607e+00      -6.37716e+00       1.89144e-04       1.15135e+02
 15.500      2.12138e+02       9.10150e+00      -6.12508e+00       1.86070e-04       1.13286e+02
 15.600      2.12187e+02       8.84499e+00      -5.87277e+00       1.83044e-04       1.11469e+02
 15.700      2.12241e+02       8.63003e+00      -5.62305e+00       1.80067e-04       1.09685e+02
 15.800      2.12300e+02       8.45014e+00      -5.37871e+00       1.77141e-04       1.07933e+02
 15.900      2.12363e+02       8.29881e+00      -5.14258e+00       1.74269e-04       1.06213e+02
 16.000      2.12426e+02       8.16956e+00      -4.91745e+00       1.71451e-04       1.04527e+02
 16.100      2.12489e+02       8.05588e+00      -4.70612e+00       1.68689e-04       1.02874e+02
 16.200      2.12551e+02       7.95130e+00      -4.51143e+00       1.65985e-04       1.01254e+02
 16.300      2.12609e+02       7.84932e+00      -4.33615e+00       1.63339e-04       9.96675e+01
 16.400      2.12663e+02       7.74545e+00      -4.18201e+00       1.60751e-04       9.81136e+01
 16.500      2.12713e+02       7.63948e+00      -4.04838e+00       1.58220e-04       9.65911e+01
 16.600      2.12759e+02       7.53177e+00      -3.93433e+00       1.55741e-04       9.50985e+01
 16.700      2.12802e+02       7.42267e+00      -3.83893e+00       1.53313e-04       9.36345e+01
 16.800      2.12842e+02       7.31256e+00      -3.76125e+00       1.50932e-04       9.21977e+01
 16.900      2.12879e+02       7.20176e+00      -3.70034e+00       1.48597e-04       9.07869e+01
 17.000      2.12913e+02       7.09066e+00      -3.65528e+00       1.46305e-04       8.94009e+01
 17.100      2.12945e+02       6.97960e+00      -3.62513e+00       1.44053e-04       8.80385e+01
 17.200      2.12975e+02       6.86893e+00      -3.60897e+00       1.41841e-04       8.66986e+01
 17.300      2.13004e+02       6.75902e+00      -3.60586e+00       1.39665e-04       8.53801e+01
 17.400      2.13031e+02       6.65022e+00      -3.61486e+00       1.37524e-04       8.40821e+01
 17.500      2.13057e+02       6.54289e+00      -3.63505e+00       1.35416e-04       8.28035e+01
 17.600      2.13083e+02       6.43738e+00      -3.66548e+00       1.33339e-04       8.15435e+01
 17.700      2.13108e+02       6.33405e+00      -3.70524e+00       1.31292e-04       8.03012e+01
 17.800      2.13134e+02       6.23327e+00      -3.75337e+00       1.29273e-04       7.90757e+01
 17.900      2.13159e+02       6.13537e+00      -3.80897e+00       1.27281e-04       7.78662e+01
 18.000      2.13185e+02       6.04072e+00      -3.87108e+00       1.25313e-04       7.66720e+01
 18.100      2.13212e+02       5.94968e+00      -3.93877e+00       1.23370e-04       7.54924e+01
 18.200      2.13240e+02       5.86260e+00      -4.01112e+00       1.21449e-04       7.43267e+01
 18.300      2.13270e+02       5.77984e+00      -4.08719e+00       1.19549e-04       7.31742e+01
 18.400      2.13302e+02       5.70176e+00      -4.16605e+00       1.17669e-04       7.20343e+01
 18.500      2.13335e+02       5.62870e+00      -4.24676e+00       1.15809e-04       7.09064e+01
 18.600      2.13371e+02       5.56104e+00      -4.32840e+00       1.13966e-04       6.97901e+01
 18.700      2.13410e+02       5.49883e+00      -4.41020e+00       1.12141e-04       6.86850e+01
 18.800      2.13451e+02       5.44150e+00      -4.49183e+00       1.10335e-04       6.75916e+01
 18.900      2.13494e+02       5.38837e+00      -4.57301e+00       1.08548e-04       6.65106e+01
 19.000      2.13540e+02       5.33878e+00      -4.65344e+00       1.06782e-04       6.54423e+01
 19.100      2.13587e+02       5.29204e+00      -4.73284e+00       1.05037e-04       6.43872e+01
 19.200      2.13636e+02       5.24750e+00      -4.81094e+00       1.03314e-04       6.33457e+01
 19.300      2.13687e+02       5.20446e+00      -4.88744e+00       1.01615e-04       6.23183e+01
 19.400      2.13738e+02       5.16227e+00      -4.96207e+00       9.99386e-05       6.13053e+01
 19.500      2.13791e+02       5.12024e+00      -5.03453e+00       9.82867e-05       6.03069e+01
 19.600      2.13845e+02       5.07770e+00      -5.10454e+00       9.66598e-05       5.93236e+01
 19.700      2.13900e+02       5.03399e+00      -5.17182e+00       9.50581e-05       5.83555e+01
 19.800      2.13955e+02       4.98843e+00      -5.23609e+00       9.34824e-05       5.74030e+01
 19.900      2.14011e+02       4.94035e+00      -5.29705e+00       9.19328e-05       5.64661e+01
 20.000      2.14067e+02       4.88906e+00      -5.35443e+00       9.04099e-05       5.55452e+01
 20.100      2.14122e+02       4.83391e+00      -5.40795e+00       8.89138e-05       5.46403e+01
 20.200      2.14178e+02       4.77422e+00      -5.45731e+00       8.74449e-05       5.37515e+01
 20.300      2.14233e+02       4.70931e+00      -5.50223e+00       8.60035e-05       5.28791e+01
