# Data Source: NASA GEOS5 Near-Real-Time
# Model Time = 2010-01-04 18:00:00
# Location = [  39.7393, -104.9900 ]
# Fields = [ Z(km), T(K), U(m/s), V(m/s), R(g/cm3), P(mbar) ]
# Ground Height = 1.589
  0.000      2.83251e+02       2.00042e+00       1.23172e+00       1.26636e-03       1.02946e+03
  0.100      2.82597e+02       1.99813e+00       1.22038e+00       1.25397e-03       1.01704e+03
  0.200      2.81946e+02       1.97977e+00       1.22984e+00       1.24173e-03       1.00479e+03
  0.300      2.81296e+02       1.95686e+00       1.24520e+00       1.22963e-03       9.92703e+02
  0.400      2.80645e+02       1.94092e+00       1.25153e+00       1.21764e-03       9.80746e+02
  0.500      2.79991e+02       1.94260e+00       1.23471e+00       1.20574e-03       9.68902e+02
  0.600      2.79340e+02       1.95400e+00       1.19768e+00       1.19391e-03       9.57164e+02
  0.700      2.78708e+02       1.94986e+00       1.15947e+00       1.18208e-03       9.45538e+02
  0.800      2.78088e+02       1.92430e+00       1.13076e+00       1.17030e-03       9.34028e+02
  0.900      2.77447e+02       1.89859e+00       1.11003e+00       1.15869e-03       9.22634e+02
  1.000      2.76768e+02       1.88742e+00       1.09063e+00       1.14733e-03       9.11357e+02
  1.100      2.76087e+02       1.88705e+00       1.05668e+00       1.13608e-03       9.00194e+02
  1.200      2.75434e+02       1.89017e+00       1.00059e+00       1.12479e-03       8.89143e+02
  1.300      2.74805e+02       1.88474e+00       9.54859e-01       1.11349e-03       8.78202e+02
  1.400      2.74188e+02       1.85994e+00       9.58498e-01       1.10224e-03       8.67371e+02
  1.500      2.73584e+02       1.82983e+00       1.00976e+00       1.09101e-03       8.56647e+02
  1.600      2.73007e+02       1.82257e+00       1.08334e+00       1.07977e-03       8.46031e+02
  1.700      2.72475e+02       1.84986e+00       1.15990e+00       1.06844e-03       8.35523e+02
  1.800      2.72009e+02       1.90032e+00       1.22877e+00       1.05695e-03       8.25127e+02
  1.900      2.71620e+02       1.95744e+00       1.27584e+00       1.04528e-03       8.14847e+02
  2.000      2.71263e+02       1.99070e+00       1.26995e+00       1.03360e-03       8.04681e+02
  2.100      2.70878e+02       1.96748e+00       1.17653e+00       1.02213e-03       7.94627e+02
  2.200      2.70423e+02       1.88625e+00       9.81352e-01       1.01104e-03       7.84682e+02
  2.300      2.69871e+02       1.77375e+00       6.88629e-01       1.00041e-03       7.74848e+02
  2.400      2.69207e+02       1.65640e+00       3.15438e-01       9.90289e-04       7.65122e+02
  2.500      2.68472e+02       1.55540e+00      -7.46850e-02       9.80509e-04       7.55495e+02
  2.600      2.67714e+02       1.49098e+00      -4.08847e-01       9.70870e-04       7.45957e+02
  2.700      2.66958e+02       1.49258e+00      -6.72253e-01       9.61279e-04       7.36503e+02
  2.800      2.66200e+02       1.60080e+00      -9.20789e-01       9.51762e-04       7.27141e+02
  2.900      2.65437e+02       1.85130e+00      -1.21260e+00       9.42338e-04       7.17876e+02
  3.000      2.64691e+02       2.23373e+00      -1.58941e+00       9.32921e-04       7.08707e+02
  3.100      2.64004e+02       2.71534e+00      -2.08493e+00       9.23374e-04       6.99633e+02
  3.200      2.63403e+02       3.25950e+00      -2.71965e+00       9.13602e-04       6.90652e+02
  3.300      2.62877e+02       3.81634e+00      -3.46737e+00       9.03649e-04       6.81765e+02
  3.400      2.62408e+02       4.33319e+00      -4.29164e+00       8.93587e-04       6.72971e+02
  3.500      2.61982e+02       4.77475e+00      -5.16616e+00       8.83472e-04       6.64273e+02
  3.600      2.61594e+02       5.14127e+00      -6.08542e+00       8.73329e-04       6.55674e+02
  3.700      2.61240e+02       5.43734e+00      -7.04638e+00       8.63182e-04       6.47179e+02
  3.800      2.60914e+02       5.66965e+00      -8.04349e+00       8.53055e-04       6.38786e+02
  3.900      2.60605e+02       5.84809e+00      -9.06729e+00       8.42979e-04       6.30495e+02
  4.000      2.60304e+02       5.98294e+00      -1.01079e+01       8.32984e-04       6.22300e+02
  4.100      2.60000e+02       6.09123e+00      -1.11487e+01       8.23102e-04       6.14200e+02
  4.200      2.59682e+02       6.20051e+00      -1.21630e+01       8.13371e-04       6.06195e+02
  4.300      2.59336e+02       6.33922e+00      -1.31231e+01       8.03829e-04       5.98284e+02
  4.400      2.58954e+02       6.53032e+00      -1.40047e+01       7.94496e-04       5.90468e+02
  4.500      2.58538e+02       6.78517e+00      -1.47911e+01       7.85364e-04       5.82744e+02
  4.600      2.58091e+02       7.11366e+00      -1.54663e+01       7.76420e-04       5.75110e+02
  4.700      2.57613e+02       7.52314e+00      -1.60185e+01       7.67656e-04       5.67565e+02
  4.800      2.57103e+02       8.01040e+00      -1.64531e+01       7.59067e-04       5.60105e+02
  4.900      2.56561e+02       8.56943e+00      -1.67797e+01       7.50651e-04       5.52727e+02
  5.000      2.55984e+02       9.19380e+00      -1.70084e+01       7.42409e-04       5.45428e+02
  5.100      2.55374e+02       9.87112e+00      -1.71520e+01       7.34329e-04       5.38207e+02
  5.200      2.54736e+02       1.05847e+01      -1.72260e+01       7.26399e-04       5.31064e+02
  5.300      2.54072e+02       1.13179e+01      -1.72455e+01       7.18605e-04       5.23998e+02
  5.400      2.53389e+02       1.20521e+01      -1.72229e+01       7.10930e-04       5.17008e+02
  5.500      2.52695e+02       1.27640e+01      -1.71621e+01       7.03352e-04       5.10094e+02
  5.600      2.51995e+02       1.34298e+01      -1.70660e+01       6.95844e-04       5.03253e+02
  5.700      2.51300e+02       1.40258e+01      -1.69375e+01       6.88385e-04       4.96484e+02
  5.800      2.50612e+02       1.45413e+01      -1.67858e+01       6.80963e-04       4.89787e+02
  5.900      2.49931e+02       1.49771e+01      -1.66257e+01       6.73582e-04       4.83162e+02
  6.000      2.49257e+02       1.53345e+01      -1.64720e+01       6.66244e-04       4.76610e+02
  6.100      2.48590e+02       1.56158e+01      -1.63400e+01       6.58951e-04       4.70131e+02
  6.200      2.47927e+02       1.58302e+01      -1.62459e+01       6.51711e-04       4.63725e+02
  6.300      2.47263e+02       1.59912e+01      -1.62068e+01       6.44534e-04       4.57390e+02
  6.400      2.46595e+02       1.61118e+01      -1.62397e+01       6.37428e-04       4.51125e+02
  6.500      2.45918e+02       1.62054e+01      -1.63592e+01       6.30402e-04       4.44928e+02
  6.600      2.45230e+02       1.62855e+01      -1.65642e+01       6.23463e-04       4.38799e+02
  6.700      2.44528e+02       1.63657e+01      -1.68469e+01       6.16613e-04       4.32737e+02
  6.800      2.43812e+02       1.64597e+01      -1.71992e+01       6.09857e-04       4.26741e+02
  6.900      2.43078e+02       1.65799e+01      -1.76141e+01       6.03198e-04       4.20812e+02
  7.000      2.42331e+02       1.67252e+01      -1.80908e+01       5.96626e-04       4.14948e+02
  7.100      2.41576e+02       1.68867e+01      -1.86326e+01       5.90126e-04       4.09148e+02
  7.200      2.40818e+02       1.70555e+01      -1.92429e+01       5.83683e-04       4.03411e+02
  7.300      2.40064e+02       1.72229e+01      -1.99247e+01       5.77283e-04       3.97738e+02
  7.400      2.39314e+02       1.73828e+01      -2.06694e+01       5.70920e-04       3.92126e+02
  7.500      2.38568e+02       1.75329e+01      -2.14535e+01       5.64599e-04       3.86576e+02
  7.600      2.37823e+02       1.76711e+01      -2.22525e+01       5.58326e-04       3.81087e+02
  7.700      2.37076e+02       1.77954e+01      -2.30419e+01       5.52107e-04       3.75658e+02
  7.800      2.36326e+02       1.79036e+01      -2.38006e+01       5.45946e-04       3.70290e+02
  7.900      2.35571e+02       1.79935e+01      -2.45276e+01       5.39842e-04       3.64982e+02
  8.000      2.34815e+02       1.80628e+01      -2.52293e+01       5.33793e-04       3.59733e+02
  8.100      2.34057e+02       1.81093e+01      -2.59120e+01       5.27798e-04       3.54544e+02
  8.200      2.33298e+02       1.81305e+01      -2.65820e+01       5.21853e-04       3.49415e+02
  8.300      2.32540e+02       1.81295e+01      -2.72416e+01       5.15957e-04       3.44344e+02
  8.400      2.31780e+02       1.81238e+01      -2.78810e+01       5.10113e-04       3.39332e+02
  8.500      2.31018e+02       1.81338e+01      -2.84888e+01       5.04322e-04       3.34376e+02
  8.600      2.30252e+02       1.81797e+01      -2.90533e+01       4.98587e-04       3.29477e+02
  8.700      2.29480e+02       1.82817e+01      -2.95629e+01       4.92909e-04       3.24634e+02
  8.800      2.28702e+02       1.84515e+01      -3.00097e+01       4.87289e-04       3.19844e+02
  8.900      2.27918e+02       1.86735e+01      -3.03981e+01       4.81728e-04       3.15110e+02
  9.000      2.27128e+02       1.89265e+01      -3.07348e+01       4.76222e-04       3.10429e+02
  9.100      2.26333e+02       1.91894e+01      -3.10266e+01       4.70771e-04       3.05801e+02
  9.200      2.25533e+02       1.94411e+01      -3.12802e+01       4.65373e-04       3.01227e+02
  9.300      2.24729e+02       1.96623e+01      -3.15017e+01       4.60028e-04       2.96706e+02
  9.400      2.23921e+02       1.98515e+01      -3.16913e+01       4.54736e-04       2.92237e+02
  9.500      2.23107e+02       2.00166e+01      -3.18458e+01       4.49497e-04       2.87820e+02
  9.600      2.22286e+02       2.01657e+01      -3.19622e+01       4.44312e-04       2.83454e+02
  9.700      2.21459e+02       2.03069e+01      -3.20372e+01       4.39182e-04       2.79138e+02
  9.800      2.20624e+02       2.04482e+01      -3.20677e+01       4.34107e-04       2.74872e+02
  9.900      2.19780e+02       2.05949e+01      -3.20582e+01       4.29088e-04       2.70656e+02
 10.000      2.18930e+02       2.07412e+01      -3.20410e+01       4.24122e-04       2.66488e+02
 10.100      2.18074e+02       2.08791e+01      -3.20549e+01       4.19205e-04       2.62369e+02
 10.200      2.17213e+02       2.10004e+01      -3.21384e+01       4.14336e-04       2.58298e+02
 10.300      2.16350e+02       2.10972e+01      -3.23304e+01       4.09510e-04       2.54275e+02
 10.400      2.15485e+02       2.11613e+01      -3.26694e+01       4.04726e-04       2.50300e+02
 10.500      2.14621e+02       2.11871e+01      -3.31821e+01       3.99979e-04       2.46372e+02
 10.600      2.13760e+02       2.11821e+01      -3.38341e+01       3.95263e-04       2.42491e+02
 10.700      2.12906e+02       2.11577e+01      -3.45720e+01       3.90571e-04       2.38655e+02
 10.800      2.12063e+02       2.11253e+01      -3.53421e+01       3.85895e-04       2.34864e+02
 10.900      2.11235e+02       2.10964e+01      -3.60910e+01       3.81230e-04       2.31118e+02
 11.000      2.10424e+02       2.10823e+01      -3.67653e+01       3.76567e-04       2.27415e+02
 11.100      2.09636e+02       2.10944e+01      -3.73115e+01       3.71900e-04       2.23755e+02
 11.200      2.08881e+02       2.11340e+01      -3.76849e+01       3.67212e-04       2.20139e+02
 11.300      2.08181e+02       2.11880e+01      -3.78539e+01       3.62470e-04       2.16568e+02
 11.400      2.07560e+02       2.12417e+01      -3.77876e+01       3.57641e-04       2.13045e+02
 11.500      2.07041e+02       2.12807e+01      -3.74555e+01       3.52692e-04       2.09572e+02
 11.600      2.06648e+02       2.12904e+01      -3.68268e+01       3.47595e-04       2.06152e+02
 11.700      2.06405e+02       2.12562e+01      -3.58711e+01       3.42321e-04       2.02785e+02
 11.800      2.06333e+02       2.11636e+01      -3.45576e+01       3.36847e-04       1.99473e+02
 11.900      2.06444e+02       2.10034e+01      -3.28892e+01       3.31172e-04       1.96217e+02
 12.000      2.06709e+02       2.07793e+01      -3.09517e+01       3.25354e-04       1.93018e+02
 12.100      2.07097e+02       2.04971e+01      -2.88438e+01       3.19456e-04       1.89875e+02
 12.200      2.07576e+02       2.01625e+01      -2.66642e+01       3.13535e-04       1.86787e+02
 12.300      2.08113e+02       1.97813e+01      -2.45115e+01       3.07648e-04       1.83754e+02
 12.400      2.08677e+02       1.93593e+01      -2.24844e+01       3.01844e-04       1.80775e+02
 12.500      2.09235e+02       1.89023e+01      -2.06816e+01       2.96170e-04       1.77851e+02
 12.600      2.09755e+02       1.84160e+01      -1.92018e+01       2.90667e-04       1.74980e+02
 12.700      2.10211e+02       1.79069e+01      -1.81170e+01       2.85366e-04       1.72163e+02
 12.800      2.10603e+02       1.73846e+01      -1.73953e+01       2.80258e-04       1.69397e+02
 12.900      2.10935e+02       1.68592e+01      -1.69794e+01       2.75331e-04       1.66681e+02
 13.000      2.11214e+02       1.63408e+01      -1.68118e+01       2.70569e-04       1.64014e+02
 13.100      2.11443e+02       1.58397e+01      -1.68351e+01       2.65959e-04       1.61395e+02
 13.200      2.11630e+02       1.53660e+01      -1.69921e+01       2.61489e-04       1.58822e+02
 13.300      2.11778e+02       1.49300e+01      -1.72252e+01       2.57147e-04       1.56295e+02
 13.400      2.11893e+02       1.45418e+01      -1.74771e+01       2.52924e-04       1.53811e+02
 13.500      2.11980e+02       1.42115e+01      -1.76903e+01       2.48807e-04       1.51370e+02
 13.600      2.12045e+02       1.39491e+01      -1.78086e+01       2.44788e-04       1.48971e+02
 13.700      2.12092e+02       1.37564e+01      -1.78073e+01       2.40859e-04       1.46612e+02
 13.800      2.12124e+02       1.36252e+01      -1.77002e+01       2.37012e-04       1.44291e+02
 13.900      2.12144e+02       1.35467e+01      -1.75033e+01       2.33239e-04       1.42008e+02
 14.000      2.12155e+02       1.35124e+01      -1.72324e+01       2.29535e-04       1.39761e+02
 14.100      2.12162e+02       1.35133e+01      -1.69036e+01       2.25893e-04       1.37547e+02
 14.200      2.12166e+02       1.35410e+01      -1.65328e+01       2.22307e-04       1.35366e+02
 14.300      2.12171e+02       1.35865e+01      -1.61360e+01       2.18773e-04       1.33217e+02
 14.400      2.12181e+02       1.36413e+01      -1.57291e+01       2.15283e-04       1.31099e+02
 14.500      2.12198e+02       1.36966e+01      -1.53281e+01       2.11835e-04       1.29009e+02
 14.600      2.12226e+02       1.37437e+01      -1.49490e+01       2.08422e-04       1.26947e+02
 14.700      2.12267e+02       1.37739e+01      -1.46076e+01       2.05041e-04       1.24912e+02
 14.800      2.12325e+02       1.37804e+01      -1.43159e+01       2.01689e-04       1.22904e+02
 14.900      2.12398e+02       1.37637e+01      -1.40715e+01       1.98370e-04       1.20923e+02
 15.000      2.12483e+02       1.37257e+01      -1.38688e+01       1.95088e-04       1.18970e+02
 15.100      2.12580e+02       1.36682e+01      -1.37022e+01       1.91846e-04       1.17046e+02
 15.200      2.12685e+02       1.35932e+01      -1.35662e+01       1.88649e-04       1.15153e+02
 15.300      2.12797e+02       1.35025e+01      -1.34552e+01       1.85501e-04       1.13290e+02
 15.400      2.12913e+02       1.33981e+01      -1.33636e+01       1.82404e-04       1.11460e+02
 15.500      2.13032e+02       1.32818e+01      -1.32860e+01       1.79361e-04       1.09662e+02
 15.600      2.13152e+02       1.31556e+01      -1.32166e+01       1.76375e-04       1.07897e+02
 15.700      2.13271e+02       1.30214e+01      -1.31501e+01       1.73449e-04       1.06166e+02
 15.800      2.13386e+02       1.28811e+01      -1.30807e+01       1.70585e-04       1.04469e+02
 15.900      2.13495e+02       1.27365e+01      -1.30029e+01       1.67785e-04       1.02807e+02
 16.000      2.13597e+02       1.25897e+01      -1.29112e+01       1.65051e-04       1.01180e+02
 16.100      2.13690e+02       1.24424e+01      -1.28001e+01       1.62385e-04       9.95887e+01
 16.200      2.13772e+02       1.22961e+01      -1.26662e+01       1.59785e-04       9.80322e+01
 16.300      2.13843e+02       1.21510e+01      -1.25108e+01       1.57250e-04       9.65090e+01
 16.400      2.13905e+02       1.20075e+01      -1.23355e+01       1.54775e-04       9.50176e+01
 16.500      2.13958e+02       1.18656e+01      -1.21418e+01       1.52357e-04       9.35564e+01
 16.600      2.14002e+02       1.17258e+01      -1.19314e+01       1.49993e-04       9.21238e+01
 16.700      2.14038e+02       1.15881e+01      -1.17060e+01       1.47680e-04       9.07185e+01
 16.800      2.14067e+02       1.14528e+01      -1.14672e+01       1.45415e-04       8.93390e+01
 16.900      2.14090e+02       1.13201e+01      -1.12165e+01       1.43195e-04       8.79840e+01
 17.000      2.14106e+02       1.11902e+01      -1.09557e+01       1.41017e-04       8.66523e+01
 17.100      2.14116e+02       1.10634e+01      -1.06863e+01       1.38878e-04       8.53426e+01
 17.200      2.14121e+02       1.09399e+01      -1.04099e+01       1.36778e-04       8.40538e+01
 17.300      2.14122e+02       1.08200e+01      -1.01283e+01       1.34712e-04       8.27849e+01
 17.400      2.14120e+02       1.07037e+01      -9.84292e+00       1.32680e-04       8.15347e+01
 17.500      2.14113e+02       1.05914e+01      -9.55550e+00       1.30678e-04       8.03023e+01
 17.600      2.14105e+02       1.04833e+01      -9.26763e+00       1.28705e-04       7.90867e+01
 17.700      2.14094e+02       1.03796e+01      -8.98094e+00       1.26759e-04       7.78871e+01
 17.800      2.14082e+02       1.02805e+01      -8.69707e+00       1.24838e-04       7.67025e+01
 17.900      2.14068e+02       1.01862e+01      -8.41762e+00       1.22941e-04       7.55322e+01
 18.000      2.14055e+02       1.00971e+01      -8.14423e+00       1.21066e-04       7.43754e+01
 18.100      2.14041e+02       1.00132e+01      -7.87851e+00       1.19211e-04       7.32314e+01
 18.200      2.14029e+02       9.93484e+00      -7.62210e+00       1.17375e-04       7.20994e+01
 18.300      2.14018e+02       9.86223e+00      -7.37662e+00       1.15557e-04       7.09789e+01
 18.400      2.14009e+02       9.79558e+00      -7.14368e+00       1.13755e-04       6.98691e+01
 18.500      2.14002e+02       9.73489e+00      -6.92447e+00       1.11969e-04       6.87699e+01
 18.600      2.13998e+02       9.67952e+00      -6.71884e+00       1.10199e-04       6.76816e+01
 18.700      2.13996e+02       9.62872e+00      -6.52645e+00       1.08447e-04       6.66049e+01
 18.800      2.13997e+02       9.58174e+00      -6.34695e+00       1.06714e-04       6.55403e+01
 18.900      2.13999e+02       9.53783e+00      -6.17998e+00       1.04999e-04       6.44882e+01
 19.000      2.14003e+02       9.49623e+00      -6.02518e+00       1.03306e-04       6.34492e+01
 19.100      2.14009e+02       9.45620e+00      -5.88221e+00       1.01633e-04       6.24236e+01
 19.200      2.14017e+02       9.41698e+00      -5.75072e+00       9.99824e-05       6.14119e+01
 19.300      2.14026e+02       9.37782e+00      -5.63035e+00       9.83543e-05       6.04145e+01
 19.400      2.14036e+02       9.33798e+00      -5.52075e+00       9.67493e-05       5.94315e+01
 19.500      2.14048e+02       9.29669e+00      -5.42157e+00       9.51682e-05       5.84635e+01
 19.600      2.14061e+02       9.25321e+00      -5.33245e+00       9.36112e-05       5.75105e+01
 19.700      2.14075e+02       9.20680e+00      -5.25304e+00       9.20790e-05       5.65729e+01
 19.800      2.14090e+02       9.15669e+00      -5.18299e+00       9.05719e-05       5.56508e+01
 19.900      2.14106e+02       9.10213e+00      -5.12194e+00       8.90904e-05       5.47445e+01
 20.000      2.14122e+02       9.04238e+00      -5.06956e+00       8.76346e-05       5.38541e+01
 20.100      2.14139e+02       8.97669e+00      -5.02547e+00       8.62050e-05       5.29797e+01
 20.200      2.14156e+02       8.90429e+00      -4.98933e+00       8.48017e-05       5.21215e+01
 20.300      2.14174e+02       8.82445e+00      -4.96079e+00       8.34250e-05       5.12796e+01
