# Data Source: NASA GEOS5 Near-Real-Time
# Model Time = 2010-07-29 18:00:00
# Location = [  39.7393, -104.9900 ]
# Fields = [ Z(km), T(K), U(m/s), V(m/s), R(g/cm3), P(mbar) ]
# Ground Height = 1.589
  0.000      3.10717e+02      -1.11347e+00      -1.01935e+00       1.13939e-03       1.01606e+03
  0.100      3.10103e+02      -1.14055e+00      -1.05064e+00       1.12833e-03       1.00421e+03
  0.200      3.09493e+02      -1.16782e+00      -1.08447e+00       1.11737e-03       9.92495e+02
  0.300      3.08876e+02      -1.19476e+00      -1.11374e+00       1.10655e-03       9.80925e+02
  0.400      3.08243e+02      -1.22066e+00      -1.13186e+00       1.09592e-03       9.69511e+02
  0.500      3.07592e+02      -1.23979e+00      -1.14501e+00       1.08548e-03       9.58253e+02
  0.600      3.06933e+02      -1.24120e+00      -1.17254e+00       1.07520e-03       9.47139e+02
  0.700      3.06271e+02      -1.21884e+00      -1.21573e+00       1.06504e-03       9.36167e+02
  0.800      3.05604e+02      -1.17642e+00      -1.24030e+00       1.05502e-03       9.25342e+02
  0.900      3.04929e+02      -1.12018e+00      -1.22113e+00       1.04516e-03       9.14670e+02
  1.000      3.04252e+02      -1.06295e+00      -1.19080e+00       1.03543e-03       9.04138e+02
  1.100      3.03579e+02      -1.01892e+00      -1.19504e+00       1.02578e-03       8.93735e+02
  1.200      3.02914e+02      -9.96159e-01      -1.23986e+00       1.01621e-03       8.83459e+02
  1.300      3.02261e+02      -9.98051e-01      -1.30094e+00       1.00672e-03       8.73317e+02
  1.400      3.01614e+02      -1.02365e+00      -1.35145e+00       9.97318e-04       8.63312e+02
  1.500      3.00944e+02      -1.06164e+00      -1.36028e+00       9.88109e-04       8.53440e+02
  1.600      3.00220e+02      -1.10051e+00      -1.29810e+00       9.79182e-04       8.43693e+02
  1.700      2.99434e+02      -1.14523e+00      -1.16606e+00       9.70547e-04       8.34064e+02
  1.800      2.98595e+02      -1.21199e+00      -9.85921e-01       9.62161e-04       8.24541e+02
  1.900      2.97718e+02      -1.31154e+00      -7.78193e-01       9.53961e-04       8.15113e+02
  2.000      2.96837e+02      -1.43521e+00      -5.57644e-01       9.45835e-04       8.05778e+02
  2.100      2.95989e+02      -1.57016e+00      -3.37778e-01       9.37659e-04       7.96531e+02
  2.200      2.95190e+02      -1.70562e+00      -1.30871e-01       9.29385e-04       7.87371e+02
  2.300      2.94425e+02      -1.83364e+00       5.24912e-02       9.21063e-04       7.78299e+02
  2.400      2.93679e+02      -1.94678e+00       2.02070e-01       9.12748e-04       7.69319e+02
  2.500      2.92936e+02      -2.04122e+00       3.10520e-01       9.04493e-04       7.60430e+02
  2.600      2.92179e+02      -2.11572e+00       3.72537e-01       8.96344e-04       7.51632e+02
  2.700      2.91395e+02      -2.16830e+00       3.83929e-01       8.88342e-04       7.42923e+02
  2.800      2.90583e+02      -2.19137e+00       3.48087e-01       8.80481e-04       7.34298e+02
  2.900      2.89752e+02      -2.17492e+00       2.71677e-01       8.72733e-04       7.25754e+02
  3.000      2.88906e+02      -2.11039e+00       1.62101e-01       8.65071e-04       7.17283e+02
  3.100      2.88061e+02      -1.99667e+00       3.05341e-02       8.57454e-04       7.08887e+02
  3.200      2.87231e+02      -1.83512e+00      -1.10619e-01       8.49838e-04       7.00567e+02
  3.300      2.86430e+02      -1.62885e+00      -2.51321e-01       8.42187e-04       6.92323e+02
  3.400      2.85659e+02      -1.38976e+00      -3.93179e-01       8.34499e-04       6.84156e+02
  3.500      2.84915e+02      -1.13243e+00      -5.41371e-01       8.26780e-04       6.76062e+02
  3.600      2.84196e+02      -8.71314e-01      -6.98917e-01       8.19040e-04       6.68043e+02
  3.700      2.83496e+02      -6.20099e-01      -8.55965e-01       8.11295e-04       6.60098e+02
  3.800      2.82811e+02      -3.92203e-01      -9.97905e-01       8.03565e-04       6.52227e+02
  3.900      2.82133e+02      -1.99116e-01      -1.11196e+00       7.95866e-04       6.44431e+02
  4.000      2.81457e+02      -3.35047e-02      -1.20336e+00       7.88218e-04       6.36708e+02
  4.100      2.80775e+02       1.22622e-01      -1.28752e+00       7.80638e-04       6.29058e+02
  4.200      2.80082e+02       2.86920e-01      -1.37955e+00       7.73144e-04       6.21479e+02
  4.300      2.79373e+02       4.64725e-01      -1.48280e+00       7.65742e-04       6.13972e+02
  4.400      2.78649e+02       6.47889e-01      -1.58780e+00       7.58430e-04       6.06534e+02
  4.500      2.77912e+02       8.27587e-01      -1.68443e+00       7.51205e-04       5.99167e+02
  4.600      2.77163e+02       9.97586e-01      -1.76398e+00       7.44060e-04       5.91868e+02
  4.700      2.76410e+02       1.15905e+00      -1.82180e+00       7.36975e-04       5.84639e+02
  4.800      2.75660e+02       1.31447e+00      -1.85394e+00       7.29930e-04       5.77480e+02
  4.900      2.74922e+02       1.46606e+00      -1.85645e+00       7.22904e-04       5.70391e+02
  5.000      2.74199e+02       1.61286e+00      -1.82492e+00       7.15889e-04       5.63371e+02
  5.100      2.73493e+02       1.75180e+00      -1.75470e+00       7.08884e-04       5.56420e+02
  5.200      2.72803e+02       1.87973e+00      -1.64111e+00       7.01885e-04       5.49538e+02
  5.300      2.72132e+02       1.99615e+00      -1.48144e+00       6.94891e-04       5.42724e+02
  5.400      2.71483e+02       2.10903e+00      -1.27938e+00       6.87897e-04       5.35978e+02
  5.500      2.70856e+02       2.22813e+00      -1.03992e+00       6.80896e-04       5.29300e+02
  5.600      2.70257e+02       2.36303e+00      -7.68067e-01       6.73885e-04       5.22690e+02
  5.700      2.69684e+02       2.51622e+00      -4.69414e-01       6.66862e-04       5.16147e+02
  5.800      2.69138e+02       2.67958e+00      -1.50401e-01       6.59832e-04       5.09672e+02
  5.900      2.68618e+02       2.84418e+00       1.82453e-01       6.52803e-04       5.03267e+02
  6.000      2.68120e+02       3.00117e+00       5.22741e-01       6.45780e-04       4.96931e+02
  6.100      2.67641e+02       3.14462e+00       8.66604e-01       6.38779e-04       4.90665e+02
  6.200      2.67168e+02       3.27155e+00       1.21284e+00       6.31825e-04       4.84466e+02
  6.300      2.66692e+02       3.37914e+00       1.56036e+00       6.24942e-04       4.78334e+02
  6.400      2.66201e+02       3.46476e+00       1.90809e+00       6.18153e-04       4.72267e+02
  6.500      2.65691e+02       3.53134e+00       2.25465e+00       6.11467e-04       4.66264e+02
  6.600      2.65164e+02       3.58816e+00       2.59838e+00       6.04878e-04       4.60325e+02
  6.700      2.64623e+02       3.64483e+00       2.93761e+00       5.98379e-04       4.54449e+02
  6.800      2.64069e+02       3.71093e+00       3.27065e+00       5.91964e-04       4.48637e+02
  6.900      2.63506e+02       3.79332e+00       3.59542e+00       5.85627e-04       4.42888e+02
  7.000      2.62935e+02       3.89332e+00       3.90909e+00       5.79363e-04       4.37200e+02
  7.100      2.62358e+02       4.01155e+00       4.20872e+00       5.73165e-04       4.31574e+02
  7.200      2.61776e+02       4.14867e+00       4.49138e+00       5.67028e-04       4.26008e+02
  7.300      2.61193e+02       4.30513e+00       4.75433e+00       5.60949e-04       4.20500e+02
  7.400      2.60606e+02       4.48005e+00       4.99615e+00       5.54927e-04       4.15052e+02
  7.500      2.60016e+02       4.67198e+00       5.21603e+00       5.48963e-04       4.09662e+02
  7.600      2.59421e+02       4.87947e+00       5.41313e+00       5.43061e-04       4.04330e+02
  7.700      2.58820e+02       5.10106e+00       5.58663e+00       5.37221e-04       3.99055e+02
  7.800      2.58212e+02       5.33319e+00       5.73557e+00       5.31446e-04       3.93838e+02
  7.900      2.57594e+02       5.56727e+00       5.85863e+00       5.25739e-04       3.88677e+02
  8.000      2.56964e+02       5.79400e+00       5.95449e+00       5.20104e-04       3.83571e+02
  8.100      2.56320e+02       6.00409e+00       6.02180e+00       5.14545e-04       3.78519e+02
  8.200      2.55659e+02       6.18829e+00       6.05921e+00       5.09064e-04       3.73521e+02
  8.300      2.54979e+02       6.34214e+00       6.06522e+00       5.03663e-04       3.68576e+02
  8.400      2.54283e+02       6.46926e+00       6.03806e+00       4.98338e-04       3.63683e+02
  8.500      2.53571e+02       6.57410e+00       5.97590e+00       4.93084e-04       3.58841e+02
  8.600      2.52845e+02       6.66109e+00       5.87696e+00       4.87898e-04       3.54050e+02
  8.700      2.52106e+02       6.73468e+00       5.73943e+00       4.82775e-04       3.49310e+02
  8.800      2.51357e+02       6.79991e+00       5.56528e+00       4.77711e-04       3.44618e+02
  8.900      2.50600e+02       6.86346e+00       5.36622e+00       4.72701e-04       3.39977e+02
  9.000      2.49836e+02       6.93223e+00       5.15556e+00       4.67740e-04       3.35384e+02
  9.100      2.49069e+02       7.01313e+00       4.94657e+00       4.62823e-04       3.30839e+02
  9.200      2.48301e+02       7.11308e+00       4.75257e+00       4.57946e-04       3.26343e+02
  9.300      2.47533e+02       7.23835e+00       4.58623e+00       4.53103e-04       3.21894e+02
  9.400      2.46768e+02       7.38850e+00       4.45414e+00       4.48293e-04       3.17492e+02
  9.500      2.46004e+02       7.55916e+00       4.35923e+00       4.43517e-04       3.13138e+02
  9.600      2.45242e+02       7.74590e+00       4.30441e+00       4.38775e-04       3.08830e+02
  9.700      2.44482e+02       7.94427e+00       4.29257e+00       4.34066e-04       3.04568e+02
  9.800      2.43722e+02       8.14984e+00       4.32661e+00       4.29391e-04       3.00351e+02
  9.900      2.42963e+02       8.35792e+00       4.40727e+00       4.24751e-04       2.96181e+02
 10.000      2.42205e+02       8.56256e+00       4.52405e+00       4.20145e-04       2.92055e+02
 10.100      2.41446e+02       8.75739e+00       4.66291e+00       4.15577e-04       2.87974e+02
 10.200      2.40686e+02       8.93602e+00       4.80976e+00       4.11046e-04       2.83938e+02
 10.300      2.39925e+02       9.09209e+00       4.95055e+00       4.06553e-04       2.79946e+02
 10.400      2.39160e+02       9.21922e+00       5.07119e+00       4.02101e-04       2.75998e+02
 10.500      2.38392e+02       9.31155e+00       5.15857e+00       3.97689e-04       2.72093e+02
 10.600      2.37620e+02       9.36769e+00       5.20779e+00       3.93318e-04       2.68231e+02
 10.700      2.36845e+02       9.38862e+00       5.21829e+00       3.88987e-04       2.64412e+02
 10.800      2.36067e+02       9.37532e+00       5.18952e+00       3.84695e-04       2.60635e+02
 10.900      2.35285e+02       9.32876e+00       5.12094e+00       3.80442e-04       2.56900e+02
 11.000      2.34500e+02       9.24993e+00       5.01202e+00       3.76226e-04       2.53206e+02
 11.100      2.33712e+02       9.13982e+00       4.86221e+00       3.72049e-04       2.49553e+02
 11.200      2.32922e+02       9.00239e+00       4.67350e+00       3.67907e-04       2.45940e+02
 11.300      2.32129e+02       8.84983e+00       4.45480e+00       3.63801e-04       2.42368e+02
 11.400      2.31335e+02       8.69578e+00       4.21627e+00       3.59729e-04       2.38835e+02
 11.500      2.30542e+02       8.55386e+00       3.96803e+00       3.55688e-04       2.35343e+02
 11.600      2.29749e+02       8.43771e+00       3.72023e+00       3.51677e-04       2.31889e+02
 11.700      2.28958e+02       8.36096e+00       3.48301e+00       3.47696e-04       2.28475e+02
 11.800      2.28170e+02       8.33722e+00       3.26649e+00       3.43742e-04       2.25099e+02
 11.900      2.27386e+02       8.37605e+00       3.07890e+00       3.39815e-04       2.21762e+02
 12.000      2.26605e+02       8.46910e+00       2.92007e+00       3.35913e-04       2.18464e+02
 12.100      2.25829e+02       8.60319e+00       2.78754e+00       3.32038e-04       2.15203e+02
 12.200      2.25056e+02       8.76508e+00       2.67886e+00       3.28190e-04       2.11981e+02
 12.300      2.24287e+02       8.94158e+00       2.59157e+00       3.24368e-04       2.08797e+02
 12.400      2.23522e+02       9.11948e+00       2.52320e+00       3.20572e-04       2.05650e+02
 12.500      2.22761e+02       9.28556e+00       2.47131e+00       3.16803e-04       2.02540e+02
 12.600      2.22004e+02       9.42663e+00       2.43343e+00       3.13061e-04       1.99468e+02
 12.700      2.21251e+02       9.53307e+00       2.40810e+00       3.09346e-04       1.96432e+02
 12.800      2.20500e+02       9.60385e+00       2.39617e+00       3.05661e-04       1.93433e+02
 12.900      2.19748e+02       9.63923e+00       2.39887e+00       3.02007e-04       1.90469e+02
 13.000      2.18995e+02       9.63943e+00       2.41741e+00       2.98386e-04       1.87541e+02
 13.100      2.18238e+02       9.60470e+00       2.45300e+00       2.94801e-04       1.84647e+02
 13.200      2.17475e+02       9.53527e+00       2.50685e+00       2.91254e-04       1.81787e+02
 13.300      2.16705e+02       9.43138e+00       2.58019e+00       2.87745e-04       1.78961e+02
 13.400      2.15925e+02       9.29328e+00       2.67422e+00       2.84278e-04       1.76168e+02
 13.500      2.15134e+02       9.12142e+00       2.78989e+00       2.80853e-04       1.73408e+02
 13.600      2.14334e+02       8.91969e+00       2.92377e+00       2.77467e-04       1.70681e+02
 13.700      2.13531e+02       8.69480e+00       3.06886e+00       2.74114e-04       1.67986e+02
 13.800      2.12730e+02       8.45356e+00       3.21808e+00       2.70787e-04       1.65325e+02
 13.900      2.11937e+02       8.20276e+00       3.36431e+00       2.67480e-04       1.62697e+02
 14.000      2.11158e+02       7.94919e+00       3.50045e+00       2.64187e-04       1.60103e+02
 14.100      2.10398e+02       7.69965e+00       3.61942e+00       2.60901e-04       1.57543e+02
 14.200      2.09662e+02       7.46094e+00       3.71410e+00       2.57616e-04       1.55016e+02
 14.300      2.08958e+02       7.23984e+00       3.77739e+00       2.54328e-04       1.52523e+02
 14.400      2.08289e+02       7.04316e+00       3.80221e+00       2.51031e-04       1.50064e+02
 14.500      2.07661e+02       6.87596e+00       3.78346e+00       2.47721e-04       1.47639e+02
 14.600      2.07076e+02       6.73581e+00       3.72476e+00       2.44397e-04       1.45247e+02
 14.700      2.06533e+02       6.61824e+00       3.63212e+00       2.41060e-04       1.42888e+02
 14.800      2.06032e+02       6.51882e+00       3.51150e+00       2.37710e-04       1.40561e+02
 14.900      2.05574e+02       6.43307e+00       3.36890e+00       2.34348e-04       1.38265e+02
 15.000      2.05160e+02       6.35654e+00       3.21029e+00       2.30974e-04       1.36000e+02
 15.100      2.04789e+02       6.28477e+00       3.04167e+00       2.27589e-04       1.33764e+02
 15.200      2.04461e+02       6.21332e+00       2.86902e+00       2.24195e-04       1.31558e+02
 15.300      2.04177e+02       6.13771e+00       2.69833e+00       2.20791e-04       1.29381e+02
 15.400      2.03938e+02       6.05350e+00       2.53557e+00       2.17380e-04       1.27233e+02
 15.500      2.03743e+02       5.95623e+00       2.38674e+00       2.13961e-04       1.25112e+02
 15.600      2.03592e+02       5.84216e+00       2.25678e+00       2.10537e-04       1.23019e+02
 15.700      2.03483e+02       5.71093e+00       2.14576e+00       2.07115e-04       1.20954e+02
 15.800      2.03412e+02       5.56316e+00       2.05234e+00       2.03702e-04       1.18920e+02
 15.900      2.03378e+02       5.39949e+00       1.97516e+00       2.00304e-04       1.16916e+02
 16.000      2.03376e+02       5.22055e+00       1.91287e+00       1.96930e-04       1.14946e+02
 16.100      2.03403e+02       5.02696e+00       1.86412e+00       1.93584e-04       1.13008e+02
 16.200      2.03458e+02       4.81936e+00       1.82756e+00       1.90273e-04       1.11105e+02
 16.300      2.03536e+02       4.59837e+00       1.80183e+00       1.87002e-04       1.09237e+02
 16.400      2.03635e+02       4.36461e+00       1.78558e+00       1.83777e-04       1.07405e+02
 16.500      2.03752e+02       4.11873e+00       1.77747e+00       1.80602e-04       1.05610e+02
 16.600      2.03883e+02       3.86135e+00       1.77613e+00       1.77481e-04       1.03852e+02
 16.700      2.04026e+02       3.59309e+00       1.78021e+00       1.74419e-04       1.02132e+02
 16.800      2.04178e+02       3.31459e+00       1.78837e+00       1.71420e-04       1.00450e+02
 16.900      2.04336e+02       3.02648e+00       1.79933e+00       1.68485e-04       9.88071e+01
 17.000      2.04498e+02       2.72941e+00       1.81253e+00       1.65615e-04       9.72012e+01
 17.100      2.04665e+02       2.42406e+00       1.82781e+00       1.62806e-04       9.56308e+01
 17.200      2.04838e+02       2.11109e+00       1.84501e+00       1.60056e-04       9.40944e+01
 17.300      2.05015e+02       1.79119e+00       1.86398e+00       1.57361e-04       9.25902e+01
 17.400      2.05198e+02       1.46502e+00       1.88454e+00       1.54719e-04       9.11168e+01
 17.500      2.05386e+02       1.13324e+00       1.90656e+00       1.52127e-04       8.96726e+01
 17.600      2.05579e+02       7.96542e-01       1.92986e+00       1.49584e-04       8.82562e+01
 17.700      2.05778e+02       4.55586e-01       1.95429e+00       1.47086e-04       8.68663e+01
 17.800      2.05982e+02       1.11054e-01       1.97969e+00       1.44632e-04       8.55016e+01
 17.900      2.06191e+02      -2.36398e-01       2.00590e+00       1.42219e-04       8.41608e+01
 18.000      2.06407e+02      -5.86090e-01       2.03276e+00       1.39846e-04       8.28427e+01
 18.100      2.06627e+02      -9.37351e-01       2.06012e+00       1.37510e-04       8.15463e+01
 18.200      2.06854e+02      -1.28951e+00       2.08781e+00       1.35210e-04       8.02706e+01
 18.300      2.07086e+02      -1.64189e+00       2.11568e+00       1.32945e-04       7.90143e+01
 18.400      2.07325e+02      -1.99383e+00       2.14357e+00       1.30712e-04       7.77766e+01
 18.500      2.07569e+02      -2.34465e+00       2.17132e+00       1.28510e-04       7.65566e+01
 18.600      2.07819e+02      -2.69368e+00       2.19877e+00       1.26338e-04       7.53533e+01
 18.700      2.08076e+02      -3.04026e+00       2.22577e+00       1.24194e-04       7.41660e+01
 18.800      2.08339e+02      -3.38370e+00       2.25214e+00       1.22077e-04       7.29939e+01
 18.900      2.08607e+02      -3.72334e+00       2.27775e+00       1.19986e-04       7.18361e+01
 19.000      2.08883e+02      -4.05850e+00       2.30242e+00       1.17920e-04       7.06920e+01
 19.100      2.09164e+02      -4.38853e+00       2.32600e+00       1.15877e-04       6.95610e+01
 19.200      2.09452e+02      -4.71287e+00       2.34832e+00       1.13857e-04       6.84428e+01
 19.300      2.09745e+02      -5.03114e+00       2.36921e+00       1.11863e-04       6.73380e+01
 19.400      2.10043e+02      -5.34299e+00       2.38850e+00       1.09894e-04       6.62469e+01
 19.500      2.10344e+02      -5.64805e+00       2.40602e+00       1.07953e-04       6.51700e+01
 19.600      2.10649e+02      -5.94596e+00       2.42159e+00       1.06040e-04       6.41077e+01
 19.700      2.10956e+02      -6.23635e+00       2.43504e+00       1.04156e-04       6.30603e+01
 19.800      2.11264e+02      -6.51885e+00       2.44620e+00       1.02302e-04       6.20283e+01
 19.900      2.11573e+02      -6.79311e+00       2.45489e+00       1.00478e-04       6.10118e+01
 20.000      2.11882e+02      -7.05876e+00       2.46094e+00       9.86862e-05       6.00112e+01
 20.100      2.12190e+02      -7.31544e+00       2.46418e+00       9.69262e-05       5.90266e+01
 20.200      2.12496e+02      -7.56278e+00       2.46443e+00       9.51987e-05       5.80583e+01
 20.300      2.12800e+02      -7.80041e+00       2.46152e+00       9.35042e-05       5.71065e+01
