# Data Source: NASA MERRA (version 2)
# Model Time = 2011-01-30 18:00:00
# Location = [  39.1026,  -84.5123 ]
# Fields = [ Z(km), T(K), U(m/s), V(m/s), R(g/cm3), P(mbar) ]
# Ground Height = 0.165
  0.000      2.76946e+02      -2.02116e+00      -2.71016e+00       1.28682e-03       1.02281e+03
  0.100      2.76099e+02      -2.44288e+00      -2.95217e+00       1.27486e-03       1.01020e+03
  0.200      2.75397e+02      -2.87208e+00      -3.23291e+00       1.26238e-03       9.97769e+02
  0.300      2.74663e+02      -3.29963e+00      -3.50512e+00       1.25017e-03       9.85485e+02
  0.400      2.73720e+02      -3.71644e+00      -3.72155e+00       1.23899e-03       9.73319e+02
  0.500      2.72530e+02      -4.11996e+00      -3.83050e+00       1.22897e-03       9.61249e+02
  0.600      2.71434e+02      -4.52508e+00      -3.76855e+00       1.21856e-03       9.49275e+02
  0.700      2.70755e+02      -4.88280e+00      -3.51172e+00       1.20634e-03       9.37404e+02
  0.800      2.70548e+02      -4.92153e+00      -3.17401e+00       1.19214e-03       9.25664e+02
  0.900      2.70784e+02      -4.40173e+00      -2.87707e+00       1.17620e-03       9.14082e+02
  1.000      2.71272e+02      -3.45622e+00      -2.64248e+00       1.15942e-03       9.02665e+02
  1.100      2.71795e+02      -2.31298e+00      -2.46206e+00       1.14276e-03       8.91413e+02
  1.200      2.72260e+02      -1.07386e+00      -2.32691e+00       1.12662e-03       8.80321e+02
  1.300      2.72639e+02       2.21681e-01      -2.22784e+00       1.11107e-03       8.69382e+02
  1.400      2.72905e+02       1.53467e+00      -2.15563e+00       1.09621e-03       8.58590e+02
  1.500      2.73030e+02       2.82614e+00      -2.10105e+00       1.08211e-03       8.47937e+02
  1.600      2.73002e+02       4.06841e+00      -2.05417e+00       1.06879e-03       8.37417e+02
  1.700      2.72848e+02       5.25922e+00      -2.00344e+00       1.05613e-03       8.27027e+02
  1.800      2.72598e+02       6.39984e+00      -1.93707e+00       1.04397e-03       8.16760e+02
  1.900      2.72282e+02       7.49152e+00      -1.84328e+00       1.03220e-03       8.06614e+02
  2.000      2.71932e+02       8.53562e+00      -1.71043e+00       1.02068e-03       7.96584e+02
  2.100      2.71567e+02       9.53887e+00      -1.53447e+00       1.00933e-03       7.86667e+02
  2.200      2.71193e+02       1.05161e+01      -1.32292e+00       9.98122e-04       7.76861e+02
  2.300      2.70814e+02       1.14830e+01      -1.08426e+00       9.87041e-04       7.67164e+02
  2.400      2.70435e+02       1.24550e+01      -8.26947e-01       9.76070e-04       7.57574e+02
  2.500      2.70059e+02       1.34475e+01      -5.59473e-01       9.65190e-04       7.48090e+02
  2.600      2.69688e+02       1.44657e+01      -2.92347e-01       9.54401e-04       7.38710e+02
  2.700      2.69311e+02       1.54907e+01      -4.05902e-02       9.43734e-04       7.29433e+02
  2.800      2.68917e+02       1.65010e+01       1.80171e-01       9.33227e-04       7.20257e+02
  2.900      2.68496e+02       1.74746e+01       3.54311e-01       9.22913e-04       7.11180e+02
  3.000      2.68036e+02       1.83900e+01       4.66204e-01       9.12824e-04       7.02202e+02
  3.100      2.67529e+02       1.92278e+01       5.02291e-01       9.02989e-04       6.93321e+02
  3.200      2.66975e+02       1.99905e+01       4.66817e-01       8.93394e-04       6.84535e+02
  3.300      2.66384e+02       2.06916e+01       3.73116e-01       8.84008e-04       6.75843e+02
  3.400      2.65762e+02       2.13448e+01       2.34597e-01       8.74798e-04       6.67241e+02
  3.500      2.65118e+02       2.19637e+01       6.46665e-02       8.65737e-04       6.58728e+02
  3.600      2.64458e+02       2.25619e+01      -1.23266e-01       8.56794e-04       6.50303e+02
  3.700      2.63792e+02       2.31500e+01      -3.17039e-01       8.47942e-04       6.41963e+02
  3.800      2.63126e+02       2.37255e+01      -5.10036e-01       8.39159e-04       6.33708e+02
  3.900      2.62466e+02       2.42821e+01      -6.97187e-01       8.30424e-04       6.25540e+02
  4.000      2.61820e+02       2.48136e+01      -8.73422e-01       8.21717e-04       6.17458e+02
  4.100      2.61195e+02       2.53135e+01      -1.03367e+00       8.13018e-04       6.09462e+02
  4.200      2.60597e+02       2.57758e+01      -1.17287e+00       8.04308e-04       6.01552e+02
  4.300      2.60032e+02       2.61942e+01      -1.28796e+00       7.95573e-04       5.93730e+02
  4.400      2.59497e+02       2.65628e+01      -1.39076e+00       7.86825e-04       5.85994e+02
  4.500      2.58985e+02       2.68760e+01      -1.49968e+00       7.78089e-04       5.78343e+02
  4.600      2.58488e+02       2.71282e+01      -1.63315e+00       7.69388e-04       5.70778e+02
  4.700      2.57998e+02       2.73138e+01      -1.80964e+00       7.60744e-04       5.63296e+02
  4.800      2.57509e+02       2.74270e+01      -2.04757e+00       7.52179e-04       5.55898e+02
  4.900      2.57012e+02       2.74624e+01      -2.36534e+00       7.43715e-04       5.48583e+02
  5.000      2.56503e+02       2.74196e+01      -2.77057e+00       7.35365e-04       5.41349e+02
  5.100      2.55979e+02       2.73105e+01      -3.24641e+00       7.27136e-04       5.34197e+02
  5.200      2.55437e+02       2.71488e+01      -3.77267e+00       7.19031e-04       5.27125e+02
  5.300      2.54876e+02       2.69480e+01      -4.32916e+00       7.11054e-04       5.20131e+02
  5.400      2.54294e+02       2.67217e+01      -4.89567e+00       7.03207e-04       5.13216e+02
  5.500      2.53688e+02       2.64834e+01      -5.45201e+00       6.95494e-04       5.06379e+02
  5.600      2.53057e+02       2.62469e+01      -5.97798e+00       6.87918e-04       4.99617e+02
  5.700      2.52400e+02       2.60248e+01      -6.45825e+00       6.80479e-04       4.92931e+02
  5.800      2.51718e+02       2.58272e+01      -6.89392e+00       6.73168e-04       4.86318e+02
  5.900      2.51014e+02       2.56634e+01      -7.28956e+00       6.65976e-04       4.79775e+02
  6.000      2.50289e+02       2.55429e+01      -7.64972e+00       6.58893e-04       4.73301e+02
  6.100      2.49545e+02       2.54752e+01      -7.97895e+00       6.51909e-04       4.66893e+02
  6.200      2.48785e+02       2.54695e+01      -8.28183e+00       6.45016e-04       4.60549e+02
  6.300      2.48010e+02       2.55355e+01      -8.56292e+00       6.38206e-04       4.54267e+02
  6.400      2.47223e+02       2.56822e+01      -8.82673e+00       6.31468e-04       4.48045e+02
  6.500      2.46425e+02       2.59082e+01      -9.07578e+00       6.24799e-04       4.41883e+02
  6.600      2.45620e+02       2.61940e+01      -9.30927e+00       6.18198e-04       4.35785e+02
  6.700      2.44808e+02       2.65186e+01      -9.52610e+00       6.11663e-04       4.29753e+02
  6.800      2.43991e+02       2.68610e+01      -9.72517e+00       6.05195e-04       4.23790e+02
  6.900      2.43172e+02       2.72003e+01      -9.90539e+00       5.98792e-04       4.17899e+02
  7.000      2.42352e+02       2.75154e+01      -1.00657e+01       5.92456e-04       4.12083e+02
  7.100      2.41534e+02       2.77853e+01      -1.02049e+01       5.86183e-04       4.06343e+02
  7.200      2.40719e+02       2.79890e+01      -1.03219e+01       5.79975e-04       4.00683e+02
  7.300      2.39908e+02       2.81092e+01      -1.04153e+01       5.73829e-04       3.95102e+02
  7.400      2.39103e+02       2.81497e+01      -1.04806e+01       5.67733e-04       3.89593e+02
  7.500      2.38301e+02       2.81217e+01      -1.05126e+01       5.61677e-04       3.84144e+02
  7.600      2.37501e+02       2.80367e+01      -1.05060e+01       5.55646e-04       3.78744e+02
  7.700      2.36703e+02       2.79059e+01      -1.04555e+01       5.49630e-04       3.73384e+02
  7.800      2.35906e+02       2.77408e+01      -1.03558e+01       5.43617e-04       3.68055e+02
  7.900      2.35107e+02       2.75527e+01      -1.02017e+01       5.37596e-04       3.62748e+02
  8.000      2.34308e+02       2.73529e+01      -9.98782e+00       5.31558e-04       3.57454e+02
  8.100      2.33506e+02       2.71528e+01      -9.70893e+00       5.25493e-04       3.52165e+02
  8.200      2.32700e+02       2.69633e+01      -9.36032e+00       5.19394e-04       3.46877e+02
  8.300      2.31891e+02       2.67897e+01      -8.94663e+00       5.13281e-04       3.41602e+02
  8.400      2.31080e+02       2.66327e+01      -8.47989e+00       5.07196e-04       3.36372e+02
  8.500      2.30268e+02       2.64928e+01      -7.97230e+00       5.01179e-04       3.31213e+02
  8.600      2.29455e+02       2.63706e+01      -7.43606e+00       4.95268e-04       3.26152e+02
  8.700      2.28644e+02       2.62666e+01      -6.88339e+00       4.89500e-04       3.21214e+02
  8.800      2.27836e+02       2.61815e+01      -6.32650e+00       4.83908e-04       3.16422e+02
  8.900      2.27030e+02       2.61157e+01      -5.77761e+00       4.78526e-04       3.11797e+02
  9.000      2.26230e+02       2.60699e+01      -5.24890e+00       4.73386e-04       3.07359e+02
  9.100      2.25435e+02       2.60445e+01      -4.75260e+00       4.68516e-04       3.03129e+02
  9.200      2.24646e+02       2.60403e+01      -4.30090e+00       4.63947e-04       2.99123e+02
  9.300      2.23867e+02       2.60579e+01      -3.90179e+00       4.59684e-04       2.95346e+02
  9.400      2.23098e+02       2.60989e+01      -3.55460e+00       4.55687e-04       2.91773e+02
  9.500      2.22344e+02       2.61648e+01      -3.25753e+00       4.51914e-04       2.88379e+02
  9.600      2.21608e+02       2.62570e+01      -3.00880e+00       4.48322e-04       2.85139e+02
  9.700      2.20892e+02       2.63771e+01      -2.80664e+00       4.44871e-04       2.82030e+02
  9.800      2.20199e+02       2.65267e+01      -2.64926e+00       4.41522e-04       2.79029e+02
  9.900      2.19533e+02       2.67071e+01      -2.53488e+00       4.38236e-04       2.76115e+02
 10.000      2.18896e+02       2.69200e+01      -2.46171e+00       4.34977e-04       2.73266e+02
 10.100      2.18292e+02       2.71669e+01      -2.42797e+00       4.31708e-04       2.70464e+02
 10.200      2.17723e+02       2.74492e+01      -2.43189e+00       4.28394e-04       2.67688e+02
 10.300      2.17192e+02       2.77685e+01      -2.47167e+00       4.25001e-04       2.64921e+02
 10.400      2.16704e+02       2.81263e+01      -2.54554e+00       4.21497e-04       2.62146e+02
 10.500      2.16259e+02       2.85241e+01      -2.65171e+00       4.17850e-04       2.59345e+02
 10.600      2.15862e+02       2.89634e+01      -2.78840e+00       4.14030e-04       2.56502e+02
 10.700      2.15516e+02       2.94457e+01      -2.95383e+00       4.10007e-04       2.53602e+02
 10.800      2.15224e+02       2.99726e+01      -3.14621e+00       4.05755e-04       2.50631e+02
 10.900      2.14987e+02       3.05447e+01      -3.36352e+00       4.01252e-04       2.47577e+02
 11.000      2.14803e+02       3.11560e+01      -3.60185e+00       3.96506e-04       2.44440e+02
 11.100      2.14668e+02       3.17974e+01      -3.85643e+00       3.91538e-04       2.41225e+02
 11.200      2.14576e+02       3.24599e+01      -4.12248e+00       3.86370e-04       2.37939e+02
 11.300      2.14522e+02       3.31344e+01      -4.39522e+00       3.81023e-04       2.34587e+02
 11.400      2.14501e+02       3.38119e+01      -4.66989e+00       3.75516e-04       2.31174e+02
 11.500      2.14508e+02       3.44833e+01      -4.94170e+00       3.69871e-04       2.27707e+02
 11.600      2.14538e+02       3.51395e+01      -5.20588e+00       3.64107e-04       2.24190e+02
 11.700      2.14586e+02       3.57715e+01      -5.45766e+00       3.58243e-04       2.20629e+02
 11.800      2.14648e+02       3.63702e+01      -5.69225e+00       3.52297e-04       2.17029e+02
 11.900      2.14717e+02       3.69266e+01      -5.90489e+00       3.46287e-04       2.13395e+02
 12.000      2.14789e+02       3.74316e+01      -6.09080e+00       3.40231e-04       2.09733e+02
 12.100      2.14859e+02       3.78761e+01      -6.24519e+00       3.34143e-04       2.06048e+02
 12.200      2.14922e+02       3.82510e+01      -6.36330e+00       3.28040e-04       2.02344e+02
 12.300      2.14973e+02       3.85475e+01      -6.44043e+00       3.21935e-04       1.98626e+02
 12.400      2.15009e+02       3.87624e+01      -6.47544e+00       3.15846e-04       1.94901e+02
 12.500      2.15031e+02       3.89006e+01      -6.47219e+00       3.09788e-04       1.91182e+02
 12.600      2.15039e+02       3.89677e+01      -6.43495e+00       3.03778e-04       1.87480e+02
 12.700      2.15034e+02       3.89694e+01      -6.36797e+00       2.97831e-04       1.83806e+02
 12.800      2.15017e+02       3.89112e+01      -6.27550e+00       2.91961e-04       1.80169e+02
 12.900      2.14988e+02       3.87987e+01      -6.16179e+00       2.86181e-04       1.76578e+02
 13.000      2.14948e+02       3.86376e+01      -6.03109e+00       2.80502e-04       1.73042e+02
 13.100      2.14898e+02       3.84333e+01      -5.88766e+00       2.74935e-04       1.69568e+02
 13.200      2.14838e+02       3.81915e+01      -5.73576e+00       2.69491e-04       1.66164e+02
 13.300      2.14769e+02       3.79179e+01      -5.57962e+00       2.64179e-04       1.62836e+02
 13.400      2.14692e+02       3.76179e+01      -5.42351e+00       2.59005e-04       1.59590e+02
 13.500      2.14607e+02       3.72972e+01      -5.27168e+00       2.53978e-04       1.56430e+02
 13.600      2.14515e+02       3.69613e+01      -5.12838e+00       2.49104e-04       1.53363e+02
 13.700      2.14417e+02       3.66159e+01      -4.99786e+00       2.44389e-04       1.50391e+02
 13.800      2.14313e+02       3.62660e+01      -4.88380e+00       2.39836e-04       1.47518e+02
 13.900      2.14204e+02       3.59129e+01      -4.78639e+00       2.35441e-04       1.44741e+02
 14.000      2.14091e+02       3.55567e+01      -4.70454e+00       2.31193e-04       1.42055e+02
 14.100      2.13973e+02       3.51974e+01      -4.63715e+00       2.27086e-04       1.39455e+02
 14.200      2.13852e+02       3.48352e+01      -4.58311e+00       2.23112e-04       1.36936e+02
 14.300      2.13729e+02       3.44700e+01      -4.54133e+00       2.19262e-04       1.34495e+02
 14.400      2.13602e+02       3.41018e+01      -4.51072e+00       2.15530e-04       1.32128e+02
 14.500      2.13474e+02       3.37309e+01      -4.49016e+00       2.11910e-04       1.29831e+02
 14.600      2.13344e+02       3.33571e+01      -4.47857e+00       2.08395e-04       1.27600e+02
 14.700      2.13213e+02       3.29806e+01      -4.47484e+00       2.04979e-04       1.25431e+02
 14.800      2.13082e+02       3.26014e+01      -4.47788e+00       2.01656e-04       1.23322e+02
 14.900      2.12951e+02       3.22195e+01      -4.48658e+00       1.98421e-04       1.21269e+02
 15.000      2.12821e+02       3.18351e+01      -4.49985e+00       1.95269e-04       1.19270e+02
 15.100      2.12692e+02       3.14480e+01      -4.51659e+00       1.92195e-04       1.17321e+02
 15.200      2.12564e+02       3.10585e+01      -4.53570e+00       1.89195e-04       1.15420e+02
 15.300      2.12439e+02       3.06666e+01      -4.55608e+00       1.86263e-04       1.13564e+02
 15.400      2.12316e+02       3.02722e+01      -4.57663e+00       1.83395e-04       1.11752e+02
 15.500      2.12197e+02       2.98755e+01      -4.59626e+00       1.80589e-04       1.09979e+02
 15.600      2.12081e+02       2.94765e+01      -4.61386e+00       1.77839e-04       1.08246e+02
 15.700      2.11970e+02       2.90753e+01      -4.62833e+00       1.75142e-04       1.06548e+02
 15.800      2.11863e+02       2.86718e+01      -4.63859e+00       1.72494e-04       1.04885e+02
 15.900      2.11762e+02       2.82662e+01      -4.64352e+00       1.69893e-04       1.03254e+02
 16.000      2.11667e+02       2.78586e+01      -4.64202e+00       1.67335e-04       1.01653e+02
 16.100      2.11578e+02       2.74488e+01      -4.63301e+00       1.64817e-04       1.00082e+02
 16.200      2.11495e+02       2.70371e+01      -4.61562e+00       1.62337e-04       9.85371e+01
 16.300      2.11420e+02       2.66238e+01      -4.59011e+00       1.59892e-04       9.70187e+01
 16.400      2.11351e+02       2.62091e+01      -4.55706e+00       1.57483e-04       9.55256e+01
 16.500      2.11289e+02       2.57933e+01      -4.51707e+00       1.55107e-04       9.40567e+01
 16.600      2.11233e+02       2.53769e+01      -4.47072e+00       1.52764e-04       9.26114e+01
 16.700      2.11184e+02       2.49600e+01      -4.41859e+00       1.50452e-04       9.11888e+01
 16.800      2.11142e+02       2.45431e+01      -4.36128e+00       1.48171e-04       8.97882e+01
 16.900      2.11105e+02       2.41265e+01      -4.29936e+00       1.45920e-04       8.84087e+01
 17.000      2.11075e+02       2.37105e+01      -4.23344e+00       1.43697e-04       8.70498e+01
 17.100      2.11051e+02       2.32954e+01      -4.16408e+00       1.41503e-04       8.57106e+01
 17.200      2.11033e+02       2.28815e+01      -4.09189e+00       1.39336e-04       8.43906e+01
 17.300      2.11021e+02       2.24693e+01      -4.01744e+00       1.37195e-04       8.30892e+01
 17.400      2.11014e+02       2.20589e+01      -3.94133e+00       1.35079e-04       8.18057e+01
 17.500      2.11014e+02       2.16507e+01      -3.86414e+00       1.32989e-04       8.05395e+01
 17.600      2.11019e+02       2.12451e+01      -3.78645e+00       1.30923e-04       7.92901e+01
 17.700      2.11030e+02       2.08424e+01      -3.70886e+00       1.28880e-04       7.80570e+01
 17.800      2.11046e+02       2.04429e+01      -3.63195e+00       1.26861e-04       7.68398e+01
 17.900      2.11068e+02       2.00469e+01      -3.55631e+00       1.24863e-04       7.56378e+01
 18.000      2.11095e+02       1.96548e+01      -3.48252e+00       1.22888e-04       7.44506e+01
 18.100      2.11127e+02       1.92668e+01      -3.41117e+00       1.20934e-04       7.32779e+01
 18.200      2.11165e+02       1.88833e+01      -3.34285e+00       1.19000e-04       7.21191e+01
 18.300      2.11207e+02       1.85047e+01      -3.27815e+00       1.17087e-04       7.09739e+01
 18.400      2.11255e+02       1.81313e+01      -3.21764e+00       1.15193e-04       6.98419e+01
 18.500      2.11307e+02       1.77632e+01      -3.16171e+00       1.13320e-04       6.87230e+01
 18.600      2.11364e+02       1.74005e+01      -3.11017e+00       1.11467e-04       6.76174e+01
 18.700      2.11426e+02       1.70431e+01      -3.06275e+00       1.09635e-04       6.65256e+01
 18.800      2.11492e+02       1.66910e+01      -3.01918e+00       1.07825e-04       6.54479e+01
 18.900      2.11562e+02       1.63441e+01      -2.97918e+00       1.06038e-04       6.43846e+01
 19.000      2.11637e+02       1.60024e+01      -2.94248e+00       1.04275e-04       6.33361e+01
 19.100      2.11715e+02       1.56658e+01      -2.90880e+00       1.02535e-04       6.23026e+01
 19.200      2.11797e+02       1.53343e+01      -2.87788e+00       1.00820e-04       6.12843e+01
 19.300      2.11882e+02       1.50077e+01      -2.84943e+00       9.91308e-05       6.02816e+01
 19.400      2.11971e+02       1.46861e+01      -2.82318e+00       9.74666e-05       5.92944e+01
 19.500      2.12063e+02       1.43695e+01      -2.79886e+00       9.58284e-05       5.83231e+01
 19.600      2.12158e+02       1.40576e+01      -2.77619e+00       9.42166e-05       5.73678e+01
 19.700      2.12256e+02       1.37506e+01      -2.75491e+00       9.26313e-05       5.64286e+01
 19.800      2.12356e+02       1.34483e+01      -2.73473e+00       9.10729e-05       5.55055e+01
 19.900      2.12459e+02       1.31508e+01      -2.71539e+00       8.95417e-05       5.45988e+01
 20.000      2.12565e+02       1.28578e+01      -2.69661e+00       8.80377e-05       5.37084e+01
 20.100      2.12672e+02       1.25695e+01      -2.67811e+00       8.65612e-05       5.28343e+01
 20.200      2.12782e+02       1.22856e+01      -2.65963e+00       8.51122e-05       5.19767e+01
 20.300      2.12893e+02       1.20063e+01      -2.64088e+00       8.36910e-05       5.11355e+01
