# Data Source: NASA MERRA (version 1)
# Model Time = 2010-02-26 18:00:00
# Location = [  39.7393, -104.9900 ]
# Fields = [ Z(km), T(K), U(m/s), V(m/s), R(g/cm3), P(mbar) ]
# Ground Height = 1.589
  0.000      2.86772e+02       2.01313e+00      -7.48272e-01       1.24345e-03       1.02340e+03
  0.100      2.86123e+02       1.99580e+00      -7.36832e-01       1.23145e-03       1.01123e+03
  0.200      2.85459e+02       1.98267e+00      -7.13966e-01       1.21966e-03       9.99228e+02
  0.300      2.84795e+02       1.96925e+00      -6.91890e-01       1.20799e-03       9.87365e+02
  0.400      2.84150e+02       1.95104e+00      -6.82821e-01       1.19633e-03       9.75619e+02
  0.500      2.83532e+02       1.92744e+00      -6.93498e-01       1.18462e-03       9.63972e+02
  0.600      2.82910e+02       1.91609e+00      -7.04966e-01       1.17302e-03       9.52435e+02
  0.700      2.82250e+02       1.93565e+00      -6.96581e-01       1.16167e-03       9.41021e+02
  0.800      2.81569e+02       1.97161e+00      -6.92598e-01       1.15050e-03       9.29725e+02
  0.900      2.80905e+02       1.99483e+00      -7.34054e-01       1.13934e-03       9.18536e+02
  1.000      2.80271e+02       1.98918e+00      -7.96075e-01       1.12814e-03       9.07449e+02
  1.100      2.79653e+02       1.94928e+00      -8.00800e-01       1.11695e-03       8.96471e+02
  1.200      2.79038e+02       1.87966e+00      -7.17515e-01       1.10585e-03       8.85604e+02
  1.300      2.78412e+02       1.80011e+00      -5.93210e-01       1.09487e-03       8.74845e+02
  1.400      2.77762e+02       1.73175e+00      -4.81829e-01       1.08407e-03       8.64192e+02
  1.500      2.77073e+02       1.69574e+00      -4.37312e-01       1.07349e-03       8.53644e+02
  1.600      2.76334e+02       1.71128e+00      -5.09775e-01       1.06319e-03       8.43197e+02
  1.700      2.75548e+02       1.77372e+00      -7.02434e-01       1.05314e-03       8.32851e+02
  1.800      2.74731e+02       1.86243e+00      -9.87067e-01       1.04328e-03       8.22603e+02
  1.900      2.73898e+02       1.95649e+00      -1.33488e+00       1.03354e-03       8.12453e+02
  2.000      2.73063e+02       2.03497e+00      -1.71706e+00       1.02387e-03       8.02400e+02
  2.100      2.72242e+02       2.07954e+00      -2.10619e+00       1.01422e-03       7.92441e+02
  2.200      2.71434e+02       2.09364e+00      -2.48644e+00       1.00457e-03       7.82577e+02
  2.300      2.70637e+02       2.09163e+00      -2.84777e+00       9.94950e-04       7.72806e+02
  2.400      2.69844e+02       2.08795e+00      -3.18019e+00       9.85376e-04       7.63127e+02
  2.500      2.69052e+02       2.09703e+00      -3.47373e+00       9.75864e-04       7.53541e+02
  2.600      2.68255e+02       2.13288e+00      -3.71936e+00       9.66431e-04       7.44046e+02
  2.700      2.67448e+02       2.20355e+00      -3.92130e+00       9.57094e-04       7.34641e+02
  2.800      2.66626e+02       2.31287e+00      -4.09317e+00       9.47869e-04       7.25326e+02
  2.900      2.65785e+02       2.46456e+00      -4.24880e+00       9.38772e-04       7.16098e+02
  3.000      2.64919e+02       2.66236e+00      -4.40205e+00       9.29817e-04       7.06958e+02
  3.100      2.64024e+02       2.90993e+00      -4.56672e+00       9.21021e-04       6.97903e+02
  3.200      2.63102e+02       3.20301e+00      -4.75491e+00       9.12370e-04       6.88933e+02
  3.300      2.62172e+02       3.52108e+00      -4.97522e+00       9.03797e-04       6.80048e+02
  3.400      2.61256e+02       3.84169e+00      -5.23577e+00       8.95233e-04       6.71251e+02
  3.500      2.60375e+02       4.14236e+00      -5.54473e+00       8.86606e-04       6.62540e+02
  3.600      2.59550e+02       4.40063e+00      -5.91024e+00       8.77849e-04       6.53917e+02
  3.700      2.58800e+02       4.59512e+00      -6.33943e+00       8.68901e-04       6.45382e+02
  3.800      2.58125e+02       4.72531e+00      -6.82008e+00       8.59773e-04       6.36935e+02
  3.900      2.57501e+02       4.80929e+00      -7.32262e+00       8.50543e-04       6.28576e+02
  4.000      2.56908e+02       4.86586e+00      -7.81688e+00       8.41289e-04       6.20304e+02
  4.100      2.56322e+02       4.91378e+00      -8.27268e+00       8.32086e-04       6.12120e+02
  4.200      2.55723e+02       4.97182e+00      -8.65987e+00       8.23006e-04       6.04023e+02
  4.300      2.55087e+02       5.05810e+00      -8.94961e+00       8.14117e-04       5.96014e+02
  4.400      2.54408e+02       5.17519e+00      -9.14446e+00       8.05436e-04       5.88090e+02
  4.500      2.53697e+02       5.31012e+00      -9.27844e+00       7.96928e-04       5.80251e+02
  4.600      2.52962e+02       5.44923e+00      -9.38692e+00       7.88560e-04       5.72496e+02
  4.700      2.52214e+02       5.57886e+00      -9.50528e+00       7.80299e-04       5.64822e+02
  4.800      2.51462e+02       5.68537e+00      -9.66889e+00       7.72113e-04       5.57230e+02
  4.900      2.50716e+02       5.75509e+00      -9.91315e+00       7.63969e-04       5.49717e+02
  5.000      2.49984e+02       5.77833e+00      -1.02661e+01       7.55843e-04       5.42283e+02
  5.100      2.49270e+02       5.75947e+00      -1.07294e+01       7.47728e-04       5.34929e+02
  5.200      2.48576e+02       5.70608e+00      -1.12991e+01       7.39619e-04       5.27653e+02
  5.300      2.47902e+02       5.62569e+00      -1.19711e+01       7.31514e-04       5.20457e+02
  5.400      2.47252e+02       5.52587e+00      -1.27412e+01       7.23409e-04       5.13341e+02
  5.500      2.46627e+02       5.41416e+00      -1.36054e+01       7.15302e-04       5.06304e+02
  5.600      2.46029e+02       5.29810e+00      -1.45595e+01       7.07189e-04       4.99348e+02
  5.700      2.45458e+02       5.18447e+00      -1.55991e+01       6.99071e-04       4.92471e+02
  5.800      2.44913e+02       5.07766e+00      -1.67181e+01       6.90956e-04       4.85674e+02
  5.900      2.44392e+02       4.98160e+00      -1.79104e+01       6.82852e-04       4.78956e+02
  6.000      2.43892e+02       4.90025e+00      -1.91697e+01       6.74769e-04       4.72318e+02
  6.100      2.43410e+02       4.83756e+00      -2.04898e+01       6.66715e-04       4.65759e+02
  6.200      2.42945e+02       4.79746e+00      -2.18645e+01       6.58699e-04       4.59278e+02
  6.300      2.42492e+02       4.78390e+00      -2.32876e+01       6.50728e-04       4.52876e+02
  6.400      2.42051e+02       4.80055e+00      -2.47525e+01       6.42810e-04       4.46552e+02
  6.500      2.41617e+02       4.84582e+00      -2.62477e+01       6.34958e-04       4.40305e+02
  6.600      2.41182e+02       4.91345e+00      -2.77567e+01       6.27189e-04       4.34135e+02
  6.700      2.40740e+02       4.99706e+00      -2.92631e+01       6.19517e-04       4.28039e+02
  6.800      2.40284e+02       5.09023e+00      -3.07505e+01       6.11958e-04       4.22016e+02
  6.900      2.39809e+02       5.18655e+00      -3.22024e+01       6.04527e-04       4.16067e+02
  7.000      2.39307e+02       5.27964e+00      -3.36023e+01       5.97237e-04       4.10189e+02
  7.100      2.38772e+02       5.36307e+00      -3.49338e+01       5.90101e-04       4.04381e+02
  7.200      2.38196e+02       5.43048e+00      -3.61804e+01       5.83132e-04       3.98643e+02
  7.300      2.37579e+02       5.47777e+00      -3.73338e+01       5.76333e-04       3.92973e+02
  7.400      2.36923e+02       5.50555e+00      -3.84012e+01       5.69687e-04       3.87370e+02
  7.500      2.36237e+02       5.51495e+00      -3.93923e+01       5.63176e-04       3.81833e+02
  7.600      2.35525e+02       5.50711e+00      -4.03164e+01       5.56783e-04       3.76360e+02
  7.700      2.34793e+02       5.48317e+00      -4.11827e+01       5.50490e-04       3.70951e+02
  7.800      2.34048e+02       5.44429e+00      -4.20009e+01       5.44281e-04       3.65604e+02
  7.900      2.33296e+02       5.39159e+00      -4.27802e+01       5.38140e-04       3.60317e+02
  8.000      2.32543e+02       5.32623e+00      -4.35300e+01       5.32052e-04       3.55091e+02
  8.100      2.31794e+02       5.24934e+00      -4.42597e+01       5.26003e-04       3.49923e+02
  8.200      2.31056e+02       5.16351e+00      -4.49753e+01       5.19980e-04       3.44814e+02
  8.300      2.30326e+02       5.07686e+00      -4.56694e+01       5.13984e-04       3.39762e+02
  8.400      2.29604e+02       4.99882e+00      -4.63315e+01       5.08021e-04       3.34768e+02
  8.500      2.28889e+02       4.93882e+00      -4.69509e+01       5.02092e-04       3.29831e+02
  8.600      2.28180e+02       4.90631e+00      -4.75172e+01       4.96202e-04       3.24951e+02
  8.700      2.27474e+02       4.91072e+00      -4.80199e+01       4.90354e-04       3.20128e+02
  8.800      2.26771e+02       4.96149e+00      -4.84483e+01       4.84552e-04       3.15362e+02
  8.900      2.26069e+02       5.06804e+00      -4.87920e+01       4.78798e-04       3.10653e+02
  9.000      2.25367e+02       5.23982e+00      -4.90404e+01       4.73095e-04       3.05999e+02
  9.100      2.24663e+02       5.48627e+00      -4.91830e+01       4.67447e-04       3.01402e+02
  9.200      2.23957e+02       5.81572e+00      -4.92103e+01       4.61855e-04       2.96860e+02
  9.300      2.23251e+02       6.22497e+00      -4.91242e+01       4.56315e-04       2.92374e+02
  9.400      2.22549e+02       6.70386e+00      -4.89332e+01       4.50815e-04       2.87943e+02
  9.500      2.21858e+02       7.24215e+00      -4.86462e+01       4.45347e-04       2.83567e+02
  9.600      2.21181e+02       7.82957e+00      -4.82718e+01       4.39902e-04       2.79245e+02
  9.700      2.20524e+02       8.45587e+00      -4.78189e+01       4.34470e-04       2.74978e+02
  9.800      2.19891e+02       9.11080e+00      -4.72960e+01       4.29044e-04       2.70764e+02
  9.900      2.19287e+02       9.78410e+00      -4.67121e+01       4.23615e-04       2.66603e+02
 10.000      2.18717e+02       1.04655e+01      -4.60758e+01       4.18175e-04       2.62496e+02
 10.100      2.18186e+02       1.11448e+01      -4.53958e+01       4.12717e-04       2.58441e+02
 10.200      2.17699e+02       1.18117e+01      -4.46809e+01       4.07234e-04       2.54438e+02
 10.300      2.17261e+02       1.24560e+01      -4.39398e+01       4.01720e-04       2.50488e+02
 10.400      2.16875e+02       1.30684e+01      -4.31805e+01       3.96171e-04       2.46589e+02
 10.500      2.16541e+02       1.36458e+01      -4.24062e+01       3.90592e-04       2.42742e+02
 10.600      2.16255e+02       1.41875e+01      -4.16188e+01       3.84994e-04       2.38948e+02
 10.700      2.16015e+02       1.46925e+01      -4.08198e+01       3.79387e-04       2.35207e+02
 10.800      2.15819e+02       1.51600e+01      -4.00108e+01       3.73779e-04       2.31519e+02
 10.900      2.15662e+02       1.55890e+01      -3.91936e+01       3.68180e-04       2.27885e+02
 11.000      2.15542e+02       1.59788e+01      -3.83699e+01       3.62597e-04       2.24305e+02
 11.100      2.15457e+02       1.63284e+01      -3.75412e+01       3.57039e-04       2.20779e+02
 11.200      2.15403e+02       1.66370e+01      -3.67092e+01       3.51514e-04       2.17308e+02
 11.300      2.15377e+02       1.69037e+01      -3.58757e+01       3.46029e-04       2.13892e+02
 11.400      2.15377e+02       1.71277e+01      -3.50422e+01       3.40591e-04       2.10531e+02
 11.500      2.15400e+02       1.73080e+01      -3.42105e+01       3.35206e-04       2.07224e+02
 11.600      2.15443e+02       1.74438e+01      -3.33821e+01       3.29881e-04       2.03972e+02
 11.700      2.15503e+02       1.75342e+01      -3.25588e+01       3.24621e-04       2.00775e+02
 11.800      2.15576e+02       1.75787e+01      -3.17422e+01       3.19431e-04       1.97633e+02
 11.900      2.15662e+02       1.75791e+01      -3.09333e+01       3.14314e-04       1.94545e+02
 12.000      2.15759e+02       1.75383e+01      -3.01330e+01       3.09270e-04       1.91508e+02
 12.100      2.15864e+02       1.74595e+01      -2.93423e+01       3.04300e-04       1.88523e+02
 12.200      2.15977e+02       1.73457e+01      -2.85619e+01       2.99406e-04       1.85588e+02
 12.300      2.16096e+02       1.72000e+01      -2.77926e+01       2.94586e-04       1.82702e+02
 12.400      2.16220e+02       1.70254e+01      -2.70355e+01       2.89843e-04       1.79863e+02
 12.500      2.16346e+02       1.68249e+01      -2.62912e+01       2.85177e-04       1.77070e+02
 12.600      2.16474e+02       1.66017e+01      -2.55607e+01       2.80587e-04       1.74323e+02
 12.700      2.16601e+02       1.63587e+01      -2.48449e+01       2.76074e-04       1.71620e+02
 12.800      2.16727e+02       1.60991e+01      -2.41445e+01       2.71639e-04       1.68961e+02
 12.900      2.16849e+02       1.58258e+01      -2.34605e+01       2.67280e-04       1.66344e+02
 13.000      2.16966e+02       1.55420e+01      -2.27936e+01       2.62999e-04       1.63768e+02
 13.100      2.17077e+02       1.52506e+01      -2.21448e+01       2.58795e-04       1.61233e+02
 13.200      2.17180e+02       1.49548e+01      -2.15149e+01       2.54668e-04       1.58737e+02
 13.300      2.17274e+02       1.46575e+01      -2.09048e+01       2.50618e-04       1.56279e+02
 13.400      2.17356e+02       1.43619e+01      -2.03153e+01       2.46645e-04       1.53860e+02
 13.500      2.17425e+02       1.40710e+01      -1.97473e+01       2.42748e-04       1.51477e+02
 13.600      2.17481e+02       1.37878e+01      -1.92016e+01       2.38927e-04       1.49131e+02
 13.700      2.17521e+02       1.35140e+01      -1.86782e+01       2.35180e-04       1.46820e+02
 13.800      2.17548e+02       1.32492e+01      -1.81760e+01       2.31506e-04       1.44544e+02
 13.900      2.17562e+02       1.29931e+01      -1.76938e+01       2.27902e-04       1.42303e+02
 14.000      2.17564e+02       1.27454e+01      -1.72303e+01       2.24365e-04       1.40095e+02
 14.100      2.17554e+02       1.25054e+01      -1.67843e+01       2.20893e-04       1.37921e+02
 14.200      2.17535e+02       1.22729e+01      -1.63546e+01       2.17483e-04       1.35781e+02
 14.300      2.17507e+02       1.20475e+01      -1.59399e+01       2.14135e-04       1.33672e+02
 14.400      2.17470e+02       1.18287e+01      -1.55391e+01       2.10845e-04       1.31597e+02
 14.500      2.17426e+02       1.16161e+01      -1.51509e+01       2.07612e-04       1.29552e+02
 14.600      2.17376e+02       1.14093e+01      -1.47740e+01       2.04434e-04       1.27540e+02
 14.700      2.17320e+02       1.12079e+01      -1.44073e+01       2.01308e-04       1.25558e+02
 14.800      2.17260e+02       1.10115e+01      -1.40495e+01       1.98234e-04       1.23606e+02
 14.900      2.17197e+02       1.08197e+01      -1.36993e+01       1.95210e-04       1.21685e+02
 15.000      2.17131e+02       1.06320e+01      -1.33556e+01       1.92233e-04       1.19793e+02
 15.100      2.17063e+02       1.04481e+01      -1.30172e+01       1.89303e-04       1.17931e+02
 15.200      2.16995e+02       1.02675e+01      -1.26828e+01       1.86418e-04       1.16097e+02
 15.300      2.16927e+02       1.00898e+01      -1.23511e+01       1.83577e-04       1.14291e+02
 15.400      2.16860e+02       9.91472e+00      -1.20210e+01       1.80777e-04       1.12514e+02
 15.500      2.16796e+02       9.74170e+00      -1.16912e+01       1.78018e-04       1.10764e+02
 15.600      2.16735e+02       9.57038e+00      -1.13605e+01       1.75299e-04       1.09041e+02
 15.700      2.16678e+02       9.40035e+00      -1.10277e+01       1.72618e-04       1.07345e+02
 15.800      2.16626e+02       9.23120e+00      -1.06915e+01       1.69974e-04       1.05675e+02
 15.900      2.16580e+02       9.06251e+00      -1.03507e+01       1.67366e-04       1.04032e+02
 16.000      2.16541e+02       8.89387e+00      -1.00041e+01       1.64793e-04       1.02414e+02
 16.100      2.16509e+02       8.72488e+00      -9.65049e+00       1.62253e-04       1.00821e+02
 16.200      2.16487e+02       8.55513e+00      -9.28863e+00       1.59747e-04       9.92536e+01
 16.300      2.16474e+02       8.38433e+00      -8.91857e+00       1.57273e-04       9.77104e+01
 16.400      2.16469e+02       8.21233e+00      -8.54158e+00       1.54831e-04       9.61912e+01
 16.500      2.16471e+02       8.03898e+00      -8.15901e+00       1.52422e-04       9.46958e+01
 16.600      2.16480e+02       7.86414e+00      -7.77220e+00       1.50047e-04       9.32236e+01
 16.700      2.16495e+02       7.68766e+00      -7.38249e+00       1.47704e-04       9.17745e+01
 16.800      2.16516e+02       7.50939e+00      -6.99125e+00       1.45394e-04       9.03478e+01
 16.900      2.16540e+02       7.32917e+00      -6.59980e+00       1.43117e-04       8.89433e+01
 17.000      2.16569e+02       7.14687e+00      -6.20948e+00       1.40874e-04       8.75605e+01
 17.100      2.16600e+02       6.96234e+00      -5.82165e+00       1.38664e-04       8.61993e+01
 17.200      2.16634e+02       6.77543e+00      -5.43765e+00       1.36486e-04       8.48590e+01
 17.300      2.16669e+02       6.58599e+00      -5.05882e+00       1.34342e-04       8.35396e+01
 17.400      2.16705e+02       6.39387e+00      -4.68650e+00       1.32231e-04       8.22405e+01
 17.500      2.16741e+02       6.19893e+00      -4.32205e+00       1.30153e-04       8.09615e+01
 17.600      2.16776e+02       6.00101e+00      -3.96679e+00       1.28108e-04       7.97022e+01
 17.700      2.16810e+02       5.79998e+00      -3.62209e+00       1.26096e-04       7.84623e+01
 17.800      2.16841e+02       5.59568e+00      -3.28928e+00       1.24116e-04       7.72415e+01
 17.900      2.16869e+02       5.38797e+00      -2.96970e+00       1.22168e-04       7.60395e+01
 18.000      2.16894e+02       5.17669e+00      -2.66470e+00       1.20253e-04       7.48559e+01
 18.100      2.16914e+02       4.96170e+00      -2.37563e+00       1.18370e-04       7.36906e+01
 18.200      2.16928e+02       4.74286e+00      -2.10382e+00       1.16519e-04       7.25430e+01
 18.300      2.16937e+02       4.52001e+00      -1.85063e+00       1.14700e-04       7.14132e+01
 18.400      2.16939e+02       4.29301e+00      -1.61739e+00       1.12912e-04       7.03006e+01
 18.500      2.16933e+02       4.06177e+00      -1.40527e+00       1.11155e-04       6.92050e+01
 18.600      2.16920e+02       3.82679e+00      -1.21383e+00       1.09429e-04       6.81262e+01
 18.700      2.16901e+02       3.58890e+00      -1.04170e+00       1.07733e-04       6.70642e+01
 18.800      2.16876e+02       3.34892e+00      -8.87534e-01       1.06065e-04       6.60187e+01
 18.900      2.16847e+02       3.10768e+00      -7.49965e-01       1.04426e-04       6.49895e+01
 19.000      2.16814e+02       2.86600e+00      -6.27635e-01       1.02813e-04       6.39764e+01
 19.100      2.16779e+02       2.62472e+00      -5.19185e-01       1.01228e-04       6.29794e+01
 19.200      2.16741e+02       2.38465e+00      -4.23257e-01       9.96681e-05       6.19982e+01
 19.300      2.16702e+02       2.14663e+00      -3.38491e-01       9.81335e-05       6.10327e+01
 19.400      2.16663e+02       1.91148e+00      -2.63524e-01       9.66233e-05       6.00826e+01
 19.500      2.16625e+02       1.68002e+00      -1.97000e-01       9.51370e-05       5.91479e+01
 19.600      2.16588e+02       1.45309e+00      -1.37559e-01       9.36739e-05       5.82284e+01
 19.700      2.16553e+02       1.23150e+00      -8.38407e-02       9.22334e-05       5.73237e+01
 19.800      2.16522e+02       1.01610e+00      -3.44870e-02       9.08149e-05       5.64339e+01
 19.900      2.16494e+02       8.07689e-01       1.18636e-02       8.94179e-05       5.55587e+01
 20.000      2.16472e+02       6.07108e-01       5.65697e-02       8.80417e-05       5.46980e+01
 20.100      2.16455e+02       4.15181e-01       1.00991e-01       8.66859e-05       5.38515e+01
 20.200      2.16445e+02       2.32734e-01       1.46486e-01       8.53500e-05       5.30191e+01
 20.300      2.16442e+02       6.05975e-02       1.94415e-01       8.40335e-05       5.22006e+01
