# Data Source: NASA MERRA (version 2)
# Model Time = 2011-12-29 18:00:00
# Location = [  39.1026,  -84.5123 ]
# Fields = [ Z(km), T(K), U(m/s), V(m/s), R(g/cm3), P(mbar) ]
# Ground Height = 0.165
  0.000      2.82513e+02       5.05638e+00       8.36942e+00       1.24454e-03       1.00908e+03
  0.100      2.81870e+02       4.93969e+00       8.24661e+00       1.23239e-03       9.96964e+02
  0.200      2.81221e+02       4.91398e+00       8.22399e+00       1.22040e-03       9.84986e+02
  0.300      2.80543e+02       5.34021e+00       8.69897e+00       1.20861e-03       9.73126e+02
  0.400      2.79820e+02       6.34590e+00       9.78762e+00       1.19710e-03       9.61372e+02
  0.500      2.79046e+02       7.47309e+00       1.09004e+01       1.18588e-03       9.49725e+02
  0.600      2.78256e+02       8.37849e+00       1.15174e+01       1.17480e-03       9.38188e+02
  0.700      2.77622e+02       9.48240e+00       1.17839e+01       1.16314e-03       9.26759e+02
  0.800      2.77304e+02       1.12637e+01       1.19541e+01       1.15025e-03       9.15441e+02
  0.900      2.77158e+02       1.34382e+01       1.19850e+01       1.13678e-03       9.04247e+02
  1.000      2.76936e+02       1.54454e+01       1.17276e+01       1.12379e-03       8.93195e+02
  1.100      2.76559e+02       1.70739e+01       1.11769e+01       1.11157e-03       8.82283e+02
  1.200      2.76073e+02       1.83695e+01       1.04349e+01       1.09992e-03       8.71499e+02
  1.300      2.75526e+02       1.93838e+01       9.60570e+00       1.08861e-03       8.60828e+02
  1.400      2.74970e+02       2.01687e+01       8.79357e+00       1.07742e-03       8.50260e+02
  1.500      2.74441e+02       2.07732e+01       8.08241e+00       1.06619e-03       8.39784e+02
  1.600      2.73934e+02       2.12351e+01       7.46842e+00       1.05497e-03       8.29404e+02
  1.700      2.73427e+02       2.15895e+01       6.92424e+00       1.04382e-03       8.19124e+02
  1.800      2.72900e+02       2.18711e+01       6.42247e+00       1.03285e-03       8.08950e+02
  1.900      2.72334e+02       2.21148e+01       5.93575e+00       1.02212e-03       7.98888e+02
  2.000      2.71716e+02       2.23461e+01       5.44365e+00       1.01169e-03       7.88939e+02
  2.100      2.71055e+02       2.25631e+01       4.94575e+00       1.00150e-03       7.79099e+02
  2.200      2.70364e+02       2.27589e+01       4.44518e+00       9.91518e-04       7.69362e+02
  2.300      2.69654e+02       2.29270e+01       3.94511e+00       9.81674e-04       7.59725e+02
  2.400      2.68939e+02       2.30605e+01       3.44867e+00       9.71918e-04       7.50181e+02
  2.500      2.68230e+02       2.31558e+01       2.95837e+00       9.62206e-04       7.40727e+02
  2.600      2.67531e+02       2.32223e+01       2.47389e+00       9.52526e-04       7.31363e+02
  2.700      2.66844e+02       2.32731e+01       1.99421e+00       9.42874e-04       7.22093e+02
  2.800      2.66172e+02       2.33211e+01       1.51829e+00       9.33245e-04       7.12919e+02
  2.900      2.65517e+02       2.33793e+01       1.04510e+00       9.23636e-04       7.03841e+02
  3.000      2.64880e+02       2.34601e+01       5.73948e-01       9.14045e-04       6.94862e+02
  3.100      2.64252e+02       2.35670e+01       1.09965e-01       9.04507e-04       6.85980e+02
  3.200      2.63611e+02       2.36962e+01      -3.36939e-01       8.95090e-04       6.77191e+02
  3.300      2.62936e+02       2.38438e+01      -7.56703e-01       8.85858e-04       6.68492e+02
  3.400      2.62207e+02       2.40056e+01      -1.13927e+00       8.76874e-04       6.59878e+02
  3.500      2.61403e+02       2.41777e+01      -1.47458e+00       8.68198e-04       6.51346e+02
  3.600      2.60508e+02       2.43560e+01      -1.75580e+00       8.59875e-04       6.42893e+02
  3.700      2.59542e+02       2.45370e+01      -1.99693e+00       8.51835e-04       6.34519e+02
  3.800      2.58536e+02       2.47172e+01      -2.22033e+00       8.43970e-04       6.26224e+02
  3.900      2.57524e+02       2.48931e+01      -2.44834e+00       8.36171e-04       6.18008e+02
  4.000      2.56538e+02       2.50612e+01      -2.70332e+00       8.28335e-04       6.09873e+02
  4.100      2.55611e+02       2.52179e+01      -3.00763e+00       8.20358e-04       6.01818e+02
  4.200      2.54772e+02       2.53603e+01      -3.37953e+00       8.12153e-04       5.93843e+02
  4.300      2.54017e+02       2.54889e+01      -3.80416e+00       8.03739e-04       5.85950e+02
  4.400      2.53327e+02       2.56060e+01      -4.25068e+00       7.95185e-04       5.78138e+02
  4.500      2.52681e+02       2.57137e+01      -4.68812e+00       7.86558e-04       5.70407e+02
  4.600      2.52059e+02       2.58144e+01      -5.08555e+00       7.77924e-04       5.62758e+02
  4.700      2.51443e+02       2.59104e+01      -5.41199e+00       7.69345e-04       5.55191e+02
  4.800      2.50812e+02       2.60039e+01      -5.63676e+00       7.60883e-04       5.47706e+02
  4.900      2.50153e+02       2.60950e+01      -5.74745e+00       7.52573e-04       5.40302e+02
  5.000      2.49468e+02       2.61807e+01      -5.76209e+00       7.44414e-04       5.32979e+02
  5.100      2.48755e+02       2.62572e+01      -5.70153e+00       7.36401e-04       5.25736e+02
  5.200      2.48016e+02       2.63213e+01      -5.58665e+00       7.28529e-04       5.18571e+02
  5.300      2.47252e+02       2.63692e+01      -5.43834e+00       7.20792e-04       5.11484e+02
  5.400      2.46464e+02       2.63974e+01      -5.27746e+00       7.13187e-04       5.04474e+02
  5.500      2.45652e+02       2.64027e+01      -5.12485e+00       7.05709e-04       4.97540e+02
  5.600      2.44819e+02       2.63881e+01      -4.99957e+00       6.98346e-04       4.90680e+02
  5.700      2.43973e+02       2.63664e+01      -4.91808e+00       6.91075e-04       4.83892e+02
  5.800      2.43119e+02       2.63511e+01      -4.89663e+00       6.83875e-04       4.77175e+02
  5.900      2.42265e+02       2.63557e+01      -4.95147e+00       6.76724e-04       4.70527e+02
  6.000      2.41418e+02       2.63938e+01      -5.09884e+00       6.69599e-04       4.63945e+02
  6.100      2.40584e+02       2.64789e+01      -5.35501e+00       6.62483e-04       4.57429e+02
  6.200      2.39771e+02       2.66244e+01      -5.73621e+00       6.55353e-04       4.50976e+02
  6.300      2.38984e+02       2.68417e+01      -6.25389e+00       6.48194e-04       4.44585e+02
  6.400      2.38225e+02       2.71275e+01      -6.88890e+00       6.41006e-04       4.38260e+02
  6.500      2.37497e+02       2.74731e+01      -7.61013e+00       6.33796e-04       4.32005e+02
  6.600      2.36798e+02       2.78696e+01      -8.38644e+00       6.26571e-04       4.25824e+02
  6.700      2.36131e+02       2.83082e+01      -9.18671e+00       6.19336e-04       4.19721e+02
  6.800      2.35495e+02       2.87802e+01      -9.97979e+00       6.12100e-04       4.13700e+02
  6.900      2.34891e+02       2.92765e+01      -1.07345e+01       6.04866e-04       4.07763e+02
  7.000      2.34320e+02       2.97885e+01      -1.14198e+01       5.97642e-04       4.01914e+02
  7.100      2.33783e+02       3.03080e+01      -1.20071e+01       5.90433e-04       3.96155e+02
  7.200      2.33279e+02       3.08342e+01      -1.24971e+01       5.83232e-04       3.90480e+02
  7.300      2.32807e+02       3.13709e+01      -1.29095e+01       5.76032e-04       3.84879e+02
  7.400      2.32366e+02       3.19222e+01      -1.32642e+01       5.68821e-04       3.79342e+02
  7.500      2.31956e+02       3.24921e+01      -1.35811e+01       5.61592e-04       3.73859e+02
  7.600      2.31574e+02       3.30846e+01      -1.38802e+01       5.54336e-04       3.68421e+02
  7.700      2.31220e+02       3.37037e+01      -1.41813e+01       5.47045e-04       3.63020e+02
  7.800      2.30894e+02       3.43534e+01      -1.45045e+01       5.39712e-04       3.57648e+02
  7.900      2.30593e+02       3.50376e+01      -1.48696e+01       5.32331e-04       3.52298e+02
  8.000      2.30317e+02       3.57598e+01      -1.52954e+01       5.24898e-04       3.46962e+02
  8.100      2.30064e+02       3.65116e+01      -1.57816e+01       5.17438e-04       3.41656e+02
  8.200      2.29831e+02       3.72746e+01      -1.63118e+01       5.10003e-04       3.36406e+02
  8.300      2.29616e+02       3.80305e+01      -1.68694e+01       5.02640e-04       3.31238e+02
  8.400      2.29415e+02       3.87608e+01      -1.74376e+01       4.95393e-04       3.26177e+02
  8.500      2.29227e+02       3.94471e+01      -1.79995e+01       4.88306e-04       3.21247e+02
  8.600      2.29048e+02       4.00709e+01      -1.85384e+01       4.81418e-04       3.16469e+02
  8.700      2.28876e+02       4.06136e+01      -1.90375e+01       4.74767e-04       3.11863e+02
  8.800      2.28708e+02       4.10569e+01      -1.94800e+01       4.68389e-04       3.07448e+02
  8.900      2.28542e+02       4.13822e+01      -1.98492e+01       4.62318e-04       3.03242e+02
  9.000      2.28375e+02       4.15712e+01      -2.01283e+01       4.56586e-04       2.99263e+02
  9.100      2.28205e+02       4.16143e+01      -2.03067e+01       4.51202e-04       2.95514e+02
  9.200      2.28032e+02       4.15223e+01      -2.03878e+01       4.46135e-04       2.91974e+02
  9.300      2.27857e+02       4.13089e+01      -2.03773e+01       4.41345e-04       2.88617e+02
  9.400      2.27681e+02       4.09878e+01      -2.02805e+01       4.36795e-04       2.85421e+02
  9.500      2.27504e+02       4.05728e+01      -2.01029e+01       4.32453e-04       2.82364e+02
  9.600      2.27327e+02       4.00774e+01      -1.98499e+01       4.28283e-04       2.79424e+02
  9.700      2.27151e+02       3.95154e+01      -1.95271e+01       4.24253e-04       2.76581e+02
  9.800      2.26976e+02       3.89004e+01      -1.91399e+01       4.20334e-04       2.73815e+02
  9.900      2.26803e+02       3.82462e+01      -1.86938e+01       4.16496e-04       2.71107e+02
 10.000      2.26632e+02       3.75664e+01      -1.81943e+01       4.12709e-04       2.68440e+02
 10.100      2.26464e+02       3.68748e+01      -1.76467e+01       4.08946e-04       2.65796e+02
 10.200      2.26300e+02       3.61849e+01      -1.70566e+01       4.05181e-04       2.63158e+02
 10.300      2.26141e+02       3.55106e+01      -1.64295e+01       4.01387e-04       2.60510e+02
 10.400      2.25986e+02       3.48655e+01      -1.57709e+01       3.97541e-04       2.57837e+02
 10.500      2.25837e+02       3.42632e+01      -1.50861e+01       3.93618e-04       2.55124e+02
 10.600      2.25694e+02       3.37175e+01      -1.43806e+01       3.89596e-04       2.52358e+02
 10.700      2.25558e+02       3.32421e+01      -1.36600e+01       3.85454e-04       2.49524e+02
 10.800      2.25429e+02       3.28443e+01      -1.29295e+01       3.81178e-04       2.46615e+02
 10.900      2.25307e+02       3.25159e+01      -1.21940e+01       3.76773e-04       2.43633e+02
 11.000      2.25190e+02       3.22464e+01      -1.14583e+01       3.72247e-04       2.40582e+02
 11.100      2.25078e+02       3.20254e+01      -1.07270e+01       3.67607e-04       2.37465e+02
 11.200      2.24971e+02       3.18424e+01      -1.00051e+01       3.62862e-04       2.34288e+02
 11.300      2.24866e+02       3.16869e+01      -9.29725e+00       3.58019e-04       2.31053e+02
 11.400      2.24764e+02       3.15485e+01      -8.60828e+00       3.53085e-04       2.27766e+02
 11.500      2.24664e+02       3.14165e+01      -7.94297e+00       3.48069e-04       2.24430e+02
 11.600      2.24565e+02       3.12805e+01      -7.30609e+00       3.42976e-04       2.21049e+02
 11.700      2.24466e+02       3.11301e+01      -6.70244e+00       3.37816e-04       2.17627e+02
 11.800      2.24366e+02       3.09548e+01      -6.13678e+00       3.32595e-04       2.14168e+02
 11.900      2.24265e+02       3.07440e+01      -5.61390e+00       3.27320e-04       2.10676e+02
 12.000      2.24162e+02       3.04873e+01      -5.13858e+00       3.21998e-04       2.07155e+02
 12.100      2.24055e+02       3.01741e+01      -4.71560e+00       3.16636e-04       2.03609e+02
 12.200      2.23945e+02       2.97941e+01      -4.34975e+00       3.11241e-04       2.00041e+02
 12.300      2.23830e+02       2.93398e+01      -4.04422e+00       3.05821e-04       1.96457e+02
 12.400      2.23712e+02       2.88167e+01      -3.79567e+00       3.00392e-04       1.92867e+02
 12.500      2.23588e+02       2.82334e+01      -3.59905e+00       2.94972e-04       1.89283e+02
 12.600      2.23461e+02       2.75987e+01      -3.44933e+00       2.89577e-04       1.85715e+02
 12.700      2.23330e+02       2.69213e+01      -3.34146e+00       2.84221e-04       1.82174e+02
 12.800      2.23195e+02       2.62101e+01      -3.27040e+00       2.78920e-04       1.78668e+02
 12.900      2.23057e+02       2.54737e+01      -3.23110e+00       2.73686e-04       1.75207e+02
 13.000      2.22915e+02       2.47209e+01      -3.21853e+00       2.68531e-04       1.71798e+02
 13.100      2.22771e+02       2.39604e+01      -3.22765e+00       2.63467e-04       1.68448e+02
 13.200      2.22623e+02       2.32010e+01      -3.25341e+00       2.58504e-04       1.65165e+02
 13.300      2.22473e+02       2.24514e+01      -3.29077e+00       2.53650e-04       1.61955e+02
 13.400      2.22320e+02       2.17203e+01      -3.33468e+00       2.48916e-04       1.58823e+02
 13.500      2.22165e+02       2.10165e+01      -3.38012e+00       2.44308e-04       1.55774e+02
 13.600      2.22007e+02       2.03487e+01      -3.42203e+00       2.39834e-04       1.52813e+02
 13.700      2.21848e+02       1.97257e+01      -3.45538e+00       2.35501e-04       1.49944e+02
 13.800      2.21687e+02       1.91542e+01      -3.47613e+00       2.31311e-04       1.47169e+02
 13.900      2.21524e+02       1.86332e+01      -3.48412e+00       2.27259e-04       1.44485e+02
 14.000      2.21360e+02       1.81600e+01      -3.48006e+00       2.23338e-04       1.41887e+02
 14.100      2.21195e+02       1.77320e+01      -3.46467e+00       2.19541e-04       1.39371e+02
 14.200      2.21030e+02       1.73462e+01      -3.43868e+00       2.15861e-04       1.36933e+02
 14.300      2.20864e+02       1.70001e+01      -3.40282e+00       2.12292e-04       1.34568e+02
 14.400      2.20699e+02       1.66909e+01      -3.35780e+00       2.08828e-04       1.32273e+02
 14.500      2.20534e+02       1.64158e+01      -3.30435e+00       2.05463e-04       1.30044e+02
 14.600      2.20369e+02       1.61722e+01      -3.24318e+00       2.02192e-04       1.27878e+02
 14.700      2.20206e+02       1.59572e+01      -3.17504e+00       1.99010e-04       1.25772e+02
 14.800      2.20044e+02       1.57682e+01      -3.10063e+00       1.95911e-04       1.23723e+02
 14.900      2.19883e+02       1.56023e+01      -3.02068e+00       1.92892e-04       1.21727e+02
 15.000      2.19725e+02       1.54570e+01      -2.93592e+00       1.89947e-04       1.19782e+02
 15.100      2.19568e+02       1.53294e+01      -2.84706e+00       1.87072e-04       1.17885e+02
 15.200      2.19414e+02       1.52169e+01      -2.75484e+00       1.84264e-04       1.16034e+02
 15.300      2.19264e+02       1.51166e+01      -2.65997e+00       1.81518e-04       1.14227e+02
 15.400      2.19116e+02       1.50259e+01      -2.56317e+00       1.78831e-04       1.12460e+02
 15.500      2.18972e+02       1.49420e+01      -2.46518e+00       1.76199e-04       1.10732e+02
 15.600      2.18831e+02       1.48622e+01      -2.36670e+00       1.73619e-04       1.09040e+02
 15.700      2.18695e+02       1.47837e+01      -2.26848e+00       1.71087e-04       1.07384e+02
 15.800      2.18563e+02       1.47039e+01      -2.17122e+00       1.68601e-04       1.05760e+02
 15.900      2.18436e+02       1.46199e+01      -2.07566e+00       1.66158e-04       1.04167e+02
 16.000      2.18314e+02       1.45291e+01      -1.98251e+00       1.63755e-04       1.02602e+02
 16.100      2.18198e+02       1.44288e+01      -1.89250e+00       1.61389e-04       1.01066e+02
 16.200      2.18087e+02       1.43161e+01      -1.80635e+00       1.59057e-04       9.95553e+01
 16.300      2.17982e+02       1.41895e+01      -1.72459e+00       1.56758e-04       9.80693e+01
 16.400      2.17883e+02       1.40495e+01      -1.64739e+00       1.54491e-04       9.66069e+01
 16.500      2.17790e+02       1.38966e+01      -1.57492e+00       1.52254e-04       9.51676e+01
 16.600      2.17703e+02       1.37314e+01      -1.50732e+00       1.50047e-04       9.37505e+01
 16.700      2.17621e+02       1.35545e+01      -1.44474e+00       1.47869e-04       9.23548e+01
 16.800      2.17546e+02       1.33664e+01      -1.38735e+00       1.45718e-04       9.09799e+01
 16.900      2.17477e+02       1.31678e+01      -1.33529e+00       1.43593e-04       8.96251e+01
 17.000      2.17414e+02       1.29593e+01      -1.28871e+00       1.41495e-04       8.82898e+01
 17.100      2.17357e+02       1.27414e+01      -1.24777e+00       1.39422e-04       8.69733e+01
 17.200      2.17305e+02       1.25147e+01      -1.21262e+00       1.37373e-04       8.56751e+01
 17.300      2.17260e+02       1.22798e+01      -1.18341e+00       1.35348e-04       8.43945e+01
 17.400      2.17221e+02       1.20373e+01      -1.16030e+00       1.33346e-04       8.31310e+01
 17.500      2.17188e+02       1.17877e+01      -1.14343e+00       1.31366e-04       8.18842e+01
 17.600      2.17161e+02       1.15318e+01      -1.13297e+00       1.29407e-04       8.06534e+01
 17.700      2.17140e+02       1.12700e+01      -1.12905e+00       1.27470e-04       7.94382e+01
 17.800      2.17126e+02       1.10029e+01      -1.13185e+00       1.25552e-04       7.82381e+01
 17.900      2.17117e+02       1.07312e+01      -1.14150e+00       1.23655e-04       7.70528e+01
 18.000      2.17115e+02       1.04554e+01      -1.15816e+00       1.21777e-04       7.58817e+01
 18.100      2.17118e+02       1.01761e+01      -1.18199e+00       1.19918e-04       7.47244e+01
 18.200      2.17128e+02       9.89382e+00      -1.21313e+00       1.18077e-04       7.35807e+01
 18.300      2.17144e+02       9.60927e+00      -1.25174e+00       1.16254e-04       7.24500e+01
 18.400      2.17166e+02       9.32297e+00      -1.29797e+00       1.14449e-04       7.13321e+01
 18.500      2.17195e+02       9.03552e+00      -1.35198e+00       1.12660e-04       7.02266e+01
 18.600      2.17229e+02       8.74747e+00      -1.41383e+00       1.10888e-04       6.91332e+01
 18.700      2.17270e+02       8.45906e+00      -1.48304e+00       1.09134e-04       6.80521e+01
 18.800      2.17315e+02       8.17042e+00      -1.55884e+00       1.07398e-04       6.69839e+01
 18.900      2.17366e+02       7.88164e+00      -1.64048e+00       1.05682e-04       6.59286e+01
 19.000      2.17421e+02       7.59285e+00      -1.72718e+00       1.03985e-04       6.48867e+01
 19.100      2.17480e+02       7.30415e+00      -1.81820e+00       1.02310e-04       6.38585e+01
 19.200      2.17543e+02       7.01567e+00      -1.91277e+00       1.00656e-04       6.28443e+01
 19.300      2.17608e+02       6.72751e+00      -2.01013e+00       9.90242e-05       6.18442e+01
 19.400      2.17677e+02       6.43979e+00      -2.10951e+00       9.74155e-05       6.08586e+01
 19.500      2.17747e+02       6.15262e+00      -2.21017e+00       9.58301e-05       5.98875e+01
 19.600      2.17819e+02       5.86611e+00      -2.31133e+00       9.42687e-05       5.89312e+01
 19.700      2.17892e+02       5.58038e+00      -2.41225e+00       9.27317e-05       5.79899e+01
 19.800      2.17966e+02       5.29554e+00      -2.51214e+00       9.12196e-05       5.70636e+01
 19.900      2.18040e+02       5.01170e+00      -2.61026e+00       8.97326e-05       5.61525e+01
 20.000      2.18114e+02       4.72897e+00      -2.70585e+00       8.82710e-05       5.52566e+01
 20.100      2.18188e+02       4.44748e+00      -2.79814e+00       8.68352e-05       5.43761e+01
 20.200      2.18260e+02       4.16732e+00      -2.88638e+00       8.54254e-05       5.35110e+01
 20.300      2.18331e+02       3.88863e+00      -2.96979e+00       8.40418e-05       5.26613e+01
