# Data Source: NASA MERRA (version 2)
# Model Time = 2011-11-06 18:00:00
# Location = [  39.1026,  -84.5123 ]
# Fields = [ Z(km), T(K), U(m/s), V(m/s), R(g/cm3), P(mbar) ]
# Ground Height = 0.165
  0.000      2.90257e+02       1.18902e-01       3.92372e+00       1.23062e-03       1.02515e+03
  0.100      2.89292e+02       2.94739e-01       4.36264e+00       1.22017e-03       1.01307e+03
  0.200      2.88356e+02       4.33968e-01       4.98009e+00       1.20972e-03       1.00115e+03
  0.300      2.87424e+02       5.69965e-01       5.61331e+00       1.19937e-03       9.89370e+02
  0.400      2.86466e+02       7.36103e-01       6.09952e+00       1.18920e-03       9.77710e+02
  0.500      2.85448e+02       9.52523e-01       6.30877e+00       1.17932e-03       9.66144e+02
  0.600      2.84278e+02       1.13027e+00       6.38139e+00       1.17011e-03       9.54664e+02
  0.700      2.82860e+02       1.15175e+00       6.58414e+00       1.16193e-03       9.43267e+02
  0.800      2.81516e+02       1.28664e+00       7.08199e+00       1.15348e-03       9.31957e+02
  0.900      2.80883e+02       2.09732e+00       7.95444e+00       1.14217e-03       9.20740e+02
  1.000      2.81114e+02       3.61401e+00       9.07751e+00       1.12746e-03       9.09634e+02
  1.100      2.81685e+02       5.12880e+00       1.00523e+01       1.11161e-03       8.98664e+02
  1.200      2.82161e+02       6.09497e+00       1.05941e+01       1.09638e-03       8.87849e+02
  1.300      2.82493e+02       6.56239e+00       1.07910e+01       1.08193e-03       8.77182e+02
  1.400      2.82698e+02       6.68383e+00       1.07954e+01       1.06818e-03       8.66657e+02
  1.500      2.82793e+02       6.61212e+00       1.07600e+01       1.05501e-03       8.56265e+02
  1.600      2.82794e+02       6.49850e+00       1.08350e+01       1.04236e-03       8.45998e+02
  1.700      2.82715e+02       6.43113e+00       1.10864e+01       1.03014e-03       8.35850e+02
  1.800      2.82563e+02       6.41429e+00       1.14682e+01       1.01833e-03       8.25819e+02
  1.900      2.82344e+02       6.44644e+00       1.19265e+01       1.00688e-03       8.15901e+02
  2.000      2.82066e+02       6.52606e+00       1.24072e+01       9.95755e-04       8.06093e+02
  2.100      2.81735e+02       6.65161e+00       1.28567e+01       9.84927e-04       7.96392e+02
  2.200      2.81364e+02       6.82106e+00       1.32344e+01       9.74344e-04       7.86796e+02
  2.300      2.80971e+02       7.03171e+00       1.35177e+01       9.63936e-04       7.77304e+02
  2.400      2.80576e+02       7.28080e+00       1.36852e+01       9.53632e-04       7.67915e+02
  2.500      2.80200e+02       7.56558e+00       1.37156e+01       9.43366e-04       7.58629e+02
  2.600      2.79861e+02       7.88329e+00       1.35877e+01       9.33072e-04       7.49445e+02
  2.700      2.79573e+02       8.22893e+00       1.32923e+01       9.22714e-04       7.40362e+02
  2.800      2.79321e+02       8.58993e+00       1.28611e+01       9.12340e-04       7.31379e+02
  2.900      2.79087e+02       8.95216e+00       1.23341e+01       9.02015e-04       7.22496e+02
  3.000      2.78852e+02       9.30151e+00       1.17513e+01       8.91802e-04       7.13713e+02
  3.100      2.78596e+02       9.62384e+00       1.11529e+01       8.81758e-04       7.05028e+02
  3.200      2.78301e+02       9.90531e+00       1.05786e+01       8.71940e-04       6.96440e+02
  3.300      2.77957e+02       1.01426e+01       1.00537e+01       8.62375e-04       6.87949e+02
  3.400      2.77565e+02       1.03452e+01       9.58635e+00       8.53053e-04       6.79552e+02
  3.500      2.77124e+02       1.05237e+01       9.18322e+00       8.43965e-04       6.71245e+02
  3.600      2.76637e+02       1.06886e+01       8.85115e+00       8.35102e-04       6.63027e+02
  3.700      2.76103e+02       1.08503e+01       8.59692e+00       8.26452e-04       6.54894e+02
  3.800      2.75525e+02       1.10189e+01       8.42718e+00       8.18009e-04       6.46846e+02
  3.900      2.74906e+02       1.11966e+01       8.34131e+00       8.09753e-04       6.38879e+02
  4.000      2.74255e+02       1.13741e+01       8.32919e+00       8.01656e-04       6.30992e+02
  4.100      2.73580e+02       1.15415e+01       8.38000e+00       7.93690e-04       6.23185e+02
  4.200      2.72890e+02       1.16890e+01       8.48296e+00       7.85828e-04       6.15457e+02
  4.300      2.72194e+02       1.18066e+01       8.62725e+00       7.78042e-04       6.07805e+02
  4.400      2.71501e+02       1.18846e+01       8.80209e+00       7.70308e-04       6.00229e+02
  4.500      2.70817e+02       1.19158e+01       8.99762e+00       7.62603e-04       5.92729e+02
  4.600      2.70141e+02       1.19054e+01       9.20820e+00       7.54933e-04       5.85303e+02
  4.700      2.69472e+02       1.18618e+01       9.42932e+00       7.47304e-04       5.77952e+02
  4.800      2.68805e+02       1.17935e+01       9.65648e+00       7.39724e-04       5.70675e+02
  4.900      2.68138e+02       1.17090e+01       9.88516e+00       7.32203e-04       5.63472e+02
  5.000      2.67469e+02       1.16167e+01       1.01109e+01       7.24748e-04       5.56343e+02
  5.100      2.66794e+02       1.15252e+01       1.03291e+01       7.17366e-04       5.49287e+02
  5.200      2.66111e+02       1.14412e+01       1.05367e+01       7.10065e-04       5.42304e+02
  5.300      2.65415e+02       1.13665e+01       1.07343e+01       7.02854e-04       5.35392e+02
  5.400      2.64702e+02       1.13019e+01       1.09234e+01       6.95742e-04       5.28551e+02
  5.500      2.63968e+02       1.12483e+01       1.11054e+01       6.88739e-04       5.21780e+02
  5.600      2.63209e+02       1.12065e+01       1.12816e+01       6.81852e-04       5.15077e+02
  5.700      2.62421e+02       1.11773e+01       1.14536e+01       6.75089e-04       5.08441e+02
  5.800      2.61599e+02       1.11617e+01       1.16228e+01       6.68460e-04       5.01872e+02
  5.900      2.60740e+02       1.11601e+01       1.17904e+01       6.61970e-04       4.95369e+02
  6.000      2.59849e+02       1.11709e+01       1.19558e+01       6.55606e-04       4.88929e+02
  6.100      2.58933e+02       1.11907e+01       1.21175e+01       6.49344e-04       4.82552e+02
  6.200      2.58001e+02       1.12165e+01       1.22739e+01       6.43160e-04       4.76235e+02
  6.300      2.57060e+02       1.12450e+01       1.24234e+01       6.37033e-04       4.69978e+02
  6.400      2.56119e+02       1.12730e+01       1.25646e+01       6.30940e-04       4.63780e+02
  6.500      2.55187e+02       1.12973e+01       1.26957e+01       6.24859e-04       4.57638e+02
  6.600      2.54271e+02       1.13147e+01       1.28153e+01       6.18771e-04       4.51552e+02
  6.700      2.53379e+02       1.13227e+01       1.29216e+01       6.12655e-04       4.45521e+02
  6.800      2.52510e+02       1.13245e+01       1.30116e+01       6.06518e-04       4.39546e+02
  6.900      2.51661e+02       1.13264e+01       1.30818e+01       6.00374e-04       4.33631e+02
  7.000      2.50828e+02       1.13347e+01       1.31286e+01       5.94238e-04       4.27778e+02
  7.100      2.50006e+02       1.13559e+01       1.31482e+01       5.88125e-04       4.21990e+02
  7.200      2.49191e+02       1.13961e+01       1.31372e+01       5.82050e-04       4.16270e+02
  7.300      2.48380e+02       1.14617e+01       1.30919e+01       5.76026e-04       4.10620e+02
  7.400      2.47567e+02       1.15590e+01       1.30086e+01       5.70066e-04       4.05042e+02
  7.500      2.46749e+02       1.16944e+01       1.28838e+01       5.64184e-04       3.99538e+02
  7.600      2.45924e+02       1.18716e+01       1.27154e+01       5.58385e-04       3.94108e+02
  7.700      2.45092e+02       1.20866e+01       1.25059e+01       5.52651e-04       3.88743e+02
  7.800      2.44258e+02       1.23337e+01       1.22588e+01       5.46965e-04       3.83433e+02
  7.900      2.43423e+02       1.26074e+01       1.19777e+01       5.41305e-04       3.78169e+02
  8.000      2.42591e+02       1.29020e+01       1.16660e+01       5.35655e-04       3.72942e+02
  8.100      2.41765e+02       1.32119e+01       1.13272e+01       5.29995e-04       3.67745e+02
  8.200      2.40946e+02       1.35316e+01       1.09648e+01       5.24310e-04       3.62569e+02
  8.300      2.40140e+02       1.38554e+01       1.05822e+01       5.18582e-04       3.57407e+02
  8.400      2.39347e+02       1.41777e+01       1.01831e+01       5.12795e-04       3.52252e+02
  8.500      2.38570e+02       1.44930e+01       9.77087e+00       5.06938e-04       3.47099e+02
  8.600      2.37811e+02       1.47980e+01       9.34930e+00       5.01028e-04       3.41960e+02
  8.700      2.37067e+02       1.50912e+01       8.92238e+00       4.95108e-04       3.36863e+02
  8.800      2.36337e+02       1.53712e+01       8.49413e+00       4.89221e-04       3.31832e+02
  8.900      2.35618e+02       1.56363e+01       8.06855e+00       4.83407e-04       3.26892e+02
  9.000      2.34910e+02       1.58853e+01       7.64964e+00       4.77705e-04       3.22064e+02
  9.100      2.34209e+02       1.61167e+01       7.24139e+00       4.72152e-04       3.17371e+02
  9.200      2.33515e+02       1.63289e+01       6.84783e+00       4.66781e-04       3.12832e+02
  9.300      2.32826e+02       1.65206e+01       6.47294e+00       4.61628e-04       3.08465e+02
  9.400      2.32140e+02       1.66902e+01       6.12074e+00       4.56724e-04       3.04289e+02
  9.500      2.31455e+02       1.68364e+01       5.79522e+00       4.52099e-04       3.00319e+02
  9.600      2.30770e+02       1.69580e+01       5.49950e+00       4.47776e-04       2.96566e+02
  9.700      2.30084e+02       1.70563e+01       5.23220e+00       4.43731e-04       2.93014e+02
  9.800      2.29398e+02       1.71331e+01       4.99046e+00       4.39930e-04       2.89638e+02
  9.900      2.28713e+02       1.71903e+01       4.77145e+00       4.36338e-04       2.86416e+02
 10.000      2.28029e+02       1.72297e+01       4.57231e+00       4.32924e-04       2.83324e+02
 10.100      2.27347e+02       1.72531e+01       4.39020e+00       4.29655e-04       2.80344e+02
 10.200      2.26666e+02       1.72625e+01       4.22229e+00       4.26502e-04       2.77453e+02
 10.300      2.25988e+02       1.72597e+01       4.06573e+00       4.23435e-04       2.74633e+02
 10.400      2.25312e+02       1.72465e+01       3.91766e+00       4.20425e-04       2.71866e+02
 10.500      2.24639e+02       1.72249e+01       3.77526e+00       4.17445e-04       2.69133e+02
 10.600      2.23971e+02       1.71966e+01       3.63567e+00       4.14467e-04       2.66418e+02
 10.700      2.23306e+02       1.71635e+01       3.49606e+00       4.11466e-04       2.63703e+02
 10.800      2.22645e+02       1.71276e+01       3.35357e+00       4.08415e-04       2.60974e+02
 10.900      2.21990e+02       1.70905e+01       3.20536e+00       4.05290e-04       2.58215e+02
 11.000      2.21340e+02       1.70543e+01       3.04860e+00       4.02067e-04       2.55411e+02
 11.100      2.20696e+02       1.70208e+01       2.88043e+00       3.98723e-04       2.52550e+02
 11.200      2.20058e+02       1.69918e+01       2.69801e+00       3.95236e-04       2.49617e+02
 11.300      2.19427e+02       1.69687e+01       2.49996e+00       3.91589e-04       2.46605e+02
 11.400      2.18805e+02       1.69517e+01       2.28881e+00       3.87782e-04       2.43516e+02
 11.500      2.18196e+02       1.69408e+01       2.06779e+00       3.83815e-04       2.40353e+02
 11.600      2.17600e+02       1.69360e+01       1.84012e+00       3.79690e-04       2.37120e+02
 11.700      2.17020e+02       1.69372e+01       1.60901e+00       3.75408e-04       2.33822e+02
 11.800      2.16459e+02       1.69445e+01       1.37769e+00       3.70972e-04       2.30462e+02
 11.900      2.15919e+02       1.69577e+01       1.14938e+00       3.66384e-04       2.27044e+02
 12.000      2.15403e+02       1.69770e+01       9.27281e-01       3.61647e-04       2.23573e+02
 12.100      2.14912e+02       1.70022e+01       7.14628e-01       3.56764e-04       2.20051e+02
 12.200      2.14449e+02       1.70334e+01       5.14637e-01       3.51739e-04       2.16485e+02
 12.300      2.14017e+02       1.70705e+01       3.30523e-01       3.46575e-04       2.12876e+02
 12.400      2.13618e+02       1.71135e+01       1.65510e-01       3.41276e-04       2.09230e+02
 12.500      2.13253e+02       1.71623e+01       2.28120e-02       3.35847e-04       2.05551e+02
 12.600      2.12926e+02       1.72171e+01      -9.43497e-02       3.30294e-04       2.01842e+02
 12.700      2.12639e+02       1.72776e+01      -1.82843e-01       3.24621e-04       1.98108e+02
 12.800      2.12390e+02       1.73432e+01      -2.41480e-01       3.18849e-04       1.94357e+02
 12.900      2.12176e+02       1.74127e+01      -2.70985e-01       3.13007e-04       1.90604e+02
 13.000      2.11993e+02       1.74845e+01      -2.72164e-01       3.07128e-04       1.86862e+02
 13.100      2.11836e+02       1.75573e+01      -2.45823e-01       3.01238e-04       1.83143e+02
 13.200      2.11701e+02       1.76299e+01      -1.92767e-01       2.95364e-04       1.79458e+02
 13.300      2.11585e+02       1.77008e+01      -1.13802e-01       2.89532e-04       1.75818e+02
 13.400      2.11482e+02       1.77686e+01      -9.73368e-03       2.83764e-04       1.72231e+02
 13.500      2.11389e+02       1.78320e+01       1.18633e-01       2.78081e-04       1.68708e+02
 13.600      2.11303e+02       1.78896e+01       2.70493e-01       2.72504e-04       1.65257e+02
 13.700      2.11217e+02       1.79401e+01       4.45038e-01       2.67049e-04       1.61884e+02
 13.800      2.11129e+02       1.79821e+01       6.41465e-01       2.61735e-04       1.58596e+02
 13.900      2.11035e+02       1.80142e+01       8.58966e-01       2.56574e-04       1.55399e+02
 14.000      2.10929e+02       1.80351e+01       1.09674e+00       2.51582e-04       1.52299e+02
 14.100      2.10808e+02       1.80435e+01       1.35397e+00       2.46770e-04       1.49301e+02
 14.200      2.10670e+02       1.80384e+01       1.62941e+00       2.42143e-04       1.46406e+02
 14.300      2.10516e+02       1.80203e+01       1.92088e+00       2.37691e-04       1.43608e+02
 14.400      2.10347e+02       1.79898e+01       2.22611e+00       2.33403e-04       1.40904e+02
 14.500      2.10164e+02       1.79472e+01       2.54283e+00       2.29269e-04       1.38288e+02
 14.600      2.09968e+02       1.78931e+01       2.86876e+00       2.25279e-04       1.35755e+02
 14.700      2.09762e+02       1.78281e+01       3.20163e+00       2.21424e-04       1.33301e+02
 14.800      2.09547e+02       1.77526e+01       3.53916e+00       2.17696e-04       1.30922e+02
 14.900      2.09324e+02       1.76670e+01       3.87907e+00       2.14085e-04       1.28614e+02
 15.000      2.09094e+02       1.75721e+01       4.21909e+00       2.10585e-04       1.26372e+02
 15.100      2.08859e+02       1.74681e+01       4.55696e+00       2.07188e-04       1.24194e+02
 15.200      2.08620e+02       1.73557e+01       4.89037e+00       2.03887e-04       1.22075e+02
 15.300      2.08379e+02       1.72353e+01       5.21708e+00       2.00676e-04       1.20013e+02
 15.400      2.08137e+02       1.71075e+01       5.53480e+00       1.97547e-04       1.18005e+02
 15.500      2.07895e+02       1.69727e+01       5.84125e+00       1.94496e-04       1.16048e+02
 15.600      2.07655e+02       1.68315e+01       6.13417e+00       1.91516e-04       1.14138e+02
 15.700      2.07419e+02       1.66843e+01       6.41127e+00       1.88602e-04       1.12273e+02
 15.800      2.07187e+02       1.65318e+01       6.67028e+00       1.85748e-04       1.10451e+02
 15.900      2.06962e+02       1.63742e+01       6.90892e+00       1.82951e-04       1.08669e+02
 16.000      2.06744e+02       1.62123e+01       7.12493e+00       1.80204e-04       1.06925e+02
 16.100      2.06534e+02       1.60464e+01       7.31602e+00       1.77505e-04       1.05217e+02
 16.200      2.06336e+02       1.58771e+01       7.47993e+00       1.74848e-04       1.03542e+02
 16.300      2.06149e+02       1.57049e+01       7.61436e+00       1.72229e-04       1.01899e+02
 16.400      2.05975e+02       1.55304e+01       7.71706e+00       1.69645e-04       1.00285e+02
 16.500      2.05815e+02       1.53538e+01       7.78610e+00       1.67093e-04       9.87000e+01
 16.600      2.05671e+02       1.51755e+01       7.82199e+00       1.64570e-04       9.71416e+01
 16.700      2.05541e+02       1.49955e+01       7.82630e+00       1.62076e-04       9.56091e+01
 16.800      2.05425e+02       1.48139e+01       7.80058e+00       1.59611e-04       9.41017e+01
 16.900      2.05323e+02       1.46307e+01       7.74639e+00       1.57173e-04       9.26186e+01
 17.000      2.05235e+02       1.44460e+01       7.66528e+00       1.54763e-04       9.11589e+01
 17.100      2.05161e+02       1.42598e+01       7.55881e+00       1.52378e-04       8.97219e+01
 17.200      2.05100e+02       1.40722e+01       7.42853e+00       1.50019e-04       8.83069e+01
 17.300      2.05053e+02       1.38833e+01       7.27601e+00       1.47685e-04       8.69131e+01
 17.400      2.05019e+02       1.36931e+01       7.10280e+00       1.45376e-04       8.55398e+01
 17.500      2.04998e+02       1.35017e+01       6.91045e+00       1.43091e-04       8.41865e+01
 17.600      2.04990e+02       1.33092e+01       6.70052e+00       1.40829e-04       8.28525e+01
 17.700      2.04994e+02       1.31156e+01       6.47457e+00       1.38590e-04       8.15370e+01
 17.800      2.05011e+02       1.29209e+01       6.23415e+00       1.36374e-04       8.02398e+01
 17.900      2.05040e+02       1.27253e+01       5.98083e+00       1.34180e-04       7.89601e+01
 18.000      2.05081e+02       1.25288e+01       5.71615e+00       1.32008e-04       7.76974e+01
 18.100      2.05133e+02       1.23314e+01       5.44168e+00       1.29857e-04       7.64512e+01
 18.200      2.05198e+02       1.21332e+01       5.15896e+00       1.27727e-04       7.52211e+01
 18.300      2.05274e+02       1.19343e+01       4.86957e+00       1.25619e-04       7.40065e+01
 18.400      2.05361e+02       1.17348e+01       4.57505e+00       1.23530e-04       7.28072e+01
 18.500      2.05460e+02       1.15346e+01       4.27696e+00       1.21462e-04       7.16225e+01
 18.600      2.05569e+02       1.13339e+01       3.97685e+00       1.19414e-04       7.04521e+01
 18.700      2.05689e+02       1.11328e+01       3.67627e+00       1.17385e-04       6.92958e+01
 18.800      2.05820e+02       1.09315e+01       3.37648e+00       1.15377e-04       6.81536e+01
 18.900      2.05959e+02       1.07307e+01       3.07855e+00       1.13391e-04       6.70259e+01
 19.000      2.06108e+02       1.05309e+01       2.78352e+00       1.11428e-04       6.59131e+01
 19.100      2.06264e+02       1.03328e+01       2.49246e+00       1.09490e-04       6.48156e+01
 19.200      2.06427e+02       1.01367e+01       2.20643e+00       1.07577e-04       6.37338e+01
 19.300      2.06597e+02       9.94341e+00       1.92649e+00       1.05691e-04       6.26679e+01
 19.400      2.06772e+02       9.75340e+00       1.65369e+00       1.03833e-04       6.16181e+01
 19.500      2.06951e+02       9.56724e+00       1.38909e+00       1.02003e-04       6.05849e+01
 19.600      2.07135e+02       9.38550e+00       1.13376e+00       1.00203e-04       5.95683e+01
 19.700      2.07322e+02       9.20876e+00       8.88737e-01       9.84321e-05       5.85685e+01
 19.800      2.07511e+02       9.03759e+00       6.55097e-01       9.66922e-05       5.75858e+01
 19.900      2.07702e+02       8.87253e+00       4.33888e-01       9.49834e-05       5.66202e+01
 20.000      2.07894e+02       8.71417e+00       2.26171e-01       9.33063e-05       5.56718e+01
 20.100      2.08086e+02       8.56307e+00       3.30049e-02       9.16613e-05       5.47408e+01
 20.200      2.08277e+02       8.41980e+00      -1.44553e-01       9.00488e-05       5.38272e+01
 20.300      2.08467e+02       8.28493e+00      -3.05440e-01       8.84691e-05       5.29311e+01
