# Data Source: NASA MERRA (version 2)
# Model Time = 2011-08-16 18:00:00
# Location = [  39.1026,  -84.5123 ]
# Fields = [ Z(km), T(K), U(m/s), V(m/s), R(g/cm3), P(mbar) ]
# Ground Height = 0.165
  0.000      3.00746e+02       2.25525e-01       1.09311e-01       1.17801e-03       1.01679e+03
  0.100      2.99942e+02       1.90115e-01       9.02660e-02       1.16773e-03       1.00522e+03
  0.200      2.99169e+02       1.62340e-01       6.61499e-02       1.15742e-03       9.93783e+02
  0.300      2.98359e+02       1.25416e-01       4.81107e-02       1.14736e-03       9.82477e+02
  0.400      2.97445e+02       6.28973e-02       4.71122e-02       1.13780e-03       9.71298e+02
  0.500      2.96425e+02      -2.10741e-02       6.29809e-02       1.12871e-03       9.60237e+02
  0.600      2.95401e+02      -9.03689e-02       7.82377e-02       1.11969e-03       9.49274e+02
  0.700      2.94450e+02      -1.21024e-01       8.08009e-02       1.11044e-03       9.38396e+02
  0.800      2.93527e+02      -1.38036e-01       8.11892e-02       1.10112e-03       9.27608e+02
  0.900      2.92574e+02      -1.74107e-01       9.35761e-02       1.09198e-03       9.16917e+02
  1.000      2.91574e+02      -2.42236e-01       1.23871e-01       1.08306e-03       9.06319e+02
  1.100      2.90536e+02      -3.45480e-01       1.73656e-01       1.07432e-03       8.95807e+02
  1.200      2.89481e+02      -4.87425e-01       2.38578e-01       1.06568e-03       8.85378e+02
  1.300      2.88445e+02      -6.72449e-01       3.06608e-01       1.05701e-03       8.75033e+02
  1.400      2.87463e+02      -9.04981e-01       3.65206e-01       1.04818e-03       8.64772e+02
  1.500      2.86573e+02      -1.18945e+00       4.01830e-01       1.03907e-03       8.54599e+02
  1.600      2.85808e+02      -1.52910e+00       4.04362e-01       1.02956e-03       8.44514e+02
  1.700      2.85173e+02      -1.90498e+00       3.68585e-01       1.01964e-03       8.34519e+02
  1.800      2.84646e+02      -2.27839e+00       2.97311e-01       1.00940e-03       8.24617e+02
  1.900      2.84204e+02      -2.60996e+00       1.93596e-01       9.98953e-04       8.14811e+02
  2.000      2.83822e+02      -2.86030e+00       6.04947e-02       9.88380e-04       8.05103e+02
  2.100      2.83478e+02      -2.99103e+00      -9.86696e-02       9.77773e-04       7.95497e+02
  2.200      2.83155e+02      -2.99030e+00      -2.73505e-01       9.67192e-04       7.85993e+02
  2.300      2.82847e+02      -2.87491e+00      -4.45971e-01       9.56663e-04       7.76590e+02
  2.400      2.82545e+02      -2.66314e+00      -5.97650e-01       9.46213e-04       7.67288e+02
  2.500      2.82244e+02      -2.37322e+00      -7.10120e-01       9.35864e-04       7.58087e+02
  2.600      2.81935e+02      -2.02342e+00      -7.64970e-01       9.25642e-04       7.48985e+02
  2.700      2.81612e+02      -1.63121e+00      -7.52001e-01       9.15562e-04       7.39983e+02
  2.800      2.81276e+02      -1.21189e+00      -6.84572e-01       9.05628e-04       7.31078e+02
  2.900      2.80923e+02      -7.80328e-01      -5.80242e-01       8.95837e-04       7.22269e+02
  3.000      2.80555e+02      -3.51433e-01      -4.56569e-01       8.86190e-04       7.13553e+02
  3.100      2.80169e+02       5.99087e-02      -3.31110e-01       8.76687e-04       7.04930e+02
  3.200      2.79765e+02       4.38993e-01      -2.21182e-01       8.67326e-04       6.96397e+02
  3.300      2.79346e+02       7.77444e-01      -1.35889e-01       8.58096e-04       6.87954e+02
  3.400      2.78918e+02       1.07462e+00      -7.43024e-02       8.48976e-04       6.79601e+02
  3.500      2.78489e+02       1.33036e+00      -3.48878e-02       8.39944e-04       6.71337e+02
  3.600      2.78066e+02       1.54448e+00      -1.61081e-02       8.30977e-04       6.63162e+02
  3.700      2.77657e+02       1.71681e+00      -1.64270e-02       8.22056e-04       6.55076e+02
  3.800      2.77267e+02       1.84729e+00      -3.43761e-02       8.13162e-04       6.47079e+02
  3.900      2.76896e+02       1.94067e+00      -7.17322e-02       8.04301e-04       6.39170e+02
  4.000      2.76528e+02       2.00858e+00      -1.34877e-01       7.95512e-04       6.31347e+02
  4.100      2.76149e+02       2.06316e+00      -2.30542e-01       7.86839e-04       6.23608e+02
  4.200      2.75744e+02       2.11654e+00      -3.65460e-01       7.78321e-04       6.15952e+02
  4.300      2.75297e+02       2.18088e+00      -5.46363e-01       7.69997e-04       6.08376e+02
  4.400      2.74792e+02       2.26832e+00      -7.79983e-01       7.61904e-04       6.00878e+02
  4.500      2.74219e+02       2.38889e+00      -1.07076e+00       7.54069e-04       5.93458e+02
  4.600      2.73585e+02       2.54073e+00      -1.41003e+00       7.46462e-04       5.86113e+02
  4.700      2.72907e+02       2.71772e+00      -1.78448e+00       7.39034e-04       5.78844e+02
  4.800      2.72201e+02       2.91372e+00      -2.18082e+00       7.31740e-04       5.71648e+02
  4.900      2.71483e+02       3.12263e+00      -2.58573e+00       7.24534e-04       5.64525e+02
  5.000      2.70769e+02       3.33832e+00      -2.98589e+00       7.17372e-04       5.57475e+02
  5.100      2.70074e+02       3.55466e+00      -3.36800e+00       7.10212e-04       5.50495e+02
  5.200      2.69412e+02       3.76642e+00      -3.72044e+00       7.03021e-04       5.43585e+02
  5.300      2.68777e+02       3.97273e+00      -4.04007e+00       6.95815e-04       5.36746e+02
  5.400      2.68159e+02       4.17406e+00      -4.32633e+00       6.88622e-04       5.29975e+02
  5.500      2.67548e+02       4.37090e+00      -4.57866e+00       6.81470e-04       5.23275e+02
  5.600      2.66932e+02       4.56372e+00      -4.79652e+00       6.74385e-04       5.16643e+02
  5.700      2.66302e+02       4.75302e+00      -4.97937e+00       6.67394e-04       5.10080e+02
  5.800      2.65647e+02       4.93926e+00      -5.12664e+00       6.60521e-04       5.03585e+02
  5.900      2.64956e+02       5.12291e+00      -5.23802e+00       6.53791e-04       4.97159e+02
  6.000      2.64228e+02       5.30386e+00      -5.32003e+00       6.47206e-04       4.90799e+02
  6.100      2.63469e+02       5.48131e+00      -5.38712e+00       6.40746e-04       4.84505e+02
  6.200      2.62686e+02       5.65445e+00      -5.45421e+00       6.34391e-04       4.78274e+02
  6.300      2.61886e+02       5.82245e+00      -5.53617e+00       6.28121e-04       4.72104e+02
  6.400      2.61076e+02       5.98448e+00      -5.64793e+00       6.21916e-04       4.65994e+02
  6.500      2.60262e+02       6.13973e+00      -5.80437e+00       6.15756e-04       4.59941e+02
  6.600      2.59453e+02       6.28737e+00      -6.02041e+00       6.09625e-04       4.53945e+02
  6.700      2.58654e+02       6.42661e+00      -6.31084e+00       6.03503e-04       4.48003e+02
  6.800      2.57870e+02       6.55830e+00      -6.68475e+00       5.97385e-04       4.42117e+02
  6.900      2.57098e+02       6.68585e+00      -7.14241e+00       5.91280e-04       4.36288e+02
  7.000      2.56335e+02       6.81287e+00      -7.68339e+00       5.85198e-04       4.30520e+02
  7.100      2.55579e+02       6.94298e+00      -8.30721e+00       5.79151e-04       4.24814e+02
  7.200      2.54828e+02       7.07979e+00      -9.01344e+00       5.73147e-04       4.19174e+02
  7.300      2.54078e+02       7.22693e+00      -9.80160e+00       5.67196e-04       4.13602e+02
  7.400      2.53328e+02       7.38800e+00      -1.06713e+01       5.61308e-04       4.08100e+02
  7.500      2.52575e+02       7.56663e+00      -1.16219e+01       5.55492e-04       4.02670e+02
  7.600      2.51816e+02       7.76619e+00      -1.26530e+01       5.49755e-04       3.97314e+02
  7.700      2.51051e+02       7.98458e+00      -1.37583e+01       5.44092e-04       3.92027e+02
  7.800      2.50284e+02       8.21430e+00      -1.49268e+01       5.38483e-04       3.86801e+02
  7.900      2.49518e+02       8.44759e+00      -1.61469e+01       5.32909e-04       3.81626e+02
  8.000      2.48757e+02       8.67672e+00      -1.74071e+01       5.27352e-04       3.76494e+02
  8.100      2.48003e+02       8.89394e+00      -1.86959e+01       5.21795e-04       3.71398e+02
  8.200      2.47260e+02       9.09149e+00      -2.00020e+01       5.16221e-04       3.66329e+02
  8.300      2.46531e+02       9.26165e+00      -2.13137e+01       5.10612e-04       3.61280e+02
  8.400      2.45819e+02       9.39665e+00      -2.26196e+01       5.04954e-04       3.56245e+02
  8.500      2.45128e+02       9.48876e+00      -2.39082e+01       4.99231e-04       3.51218e+02
  8.600      2.44460e+02       9.53139e+00      -2.51685e+01       4.93434e-04       3.46194e+02
  8.700      2.43815e+02       9.52769e+00      -2.63932e+01       4.87589e-04       3.41189e+02
  8.800      2.43189e+02       9.48579e+00      -2.75766e+01       4.81736e-04       3.36229e+02
  8.900      2.42581e+02       9.41380e+00      -2.87134e+01       4.75915e-04       3.31336e+02
  9.000      2.41988e+02       9.31986e+00      -2.97980e+01       4.70166e-04       3.26533e+02
  9.100      2.41406e+02       9.21211e+00      -3.08249e+01       4.64524e-04       3.21839e+02
  9.200      2.40834e+02       9.09869e+00      -3.17887e+01       4.59024e-04       3.17275e+02
  9.300      2.40268e+02       8.98773e+00      -3.26839e+01       4.53699e-04       3.12858e+02
  9.400      2.39707e+02       8.88736e+00      -3.35050e+01       4.48581e-04       3.08605e+02
  9.500      2.39146e+02       8.80571e+00      -3.42464e+01       4.43700e-04       3.04533e+02
  9.600      2.38584e+02       8.75094e+00      -3.49028e+01       4.39084e-04       3.00657e+02
  9.700      2.38018e+02       8.73025e+00      -3.54697e+01       4.34756e-04       2.96987e+02
  9.800      2.37448e+02       8.74473e+00      -3.59502e+01       4.30700e-04       2.93512e+02
  9.900      2.36873e+02       8.79283e+00      -3.63506e+01       4.26886e-04       2.90208e+02
 10.000      2.36294e+02       8.87304e+00      -3.66772e+01       4.23282e-04       2.87055e+02
 10.100      2.35711e+02       8.98384e+00      -3.69362e+01       4.19862e-04       2.84033e+02
 10.200      2.35124e+02       9.12369e+00      -3.71340e+01       4.16597e-04       2.81122e+02
 10.300      2.34533e+02       9.29107e+00      -3.72767e+01       4.13460e-04       2.78304e+02
 10.400      2.33938e+02       9.48444e+00      -3.73707e+01       4.10427e-04       2.75561e+02
 10.500      2.33339e+02       9.70229e+00      -3.74222e+01       4.07471e-04       2.72876e+02
 10.600      2.32736e+02       9.94309e+00      -3.74375e+01       4.04570e-04       2.70234e+02
 10.700      2.32130e+02       1.02053e+01      -3.74229e+01       4.01698e-04       2.67617e+02
 10.800      2.31520e+02       1.04874e+01      -3.73845e+01       3.98834e-04       2.65011e+02
 10.900      2.30907e+02       1.07879e+01      -3.73288e+01       3.95955e-04       2.62401e+02
 11.000      2.30291e+02       1.11052e+01      -3.72620e+01       3.93040e-04       2.59773e+02
 11.100      2.29671e+02       1.14378e+01      -3.71903e+01       3.90067e-04       2.57115e+02
 11.200      2.29048e+02       1.17843e+01      -3.71201e+01       3.87016e-04       2.54412e+02
 11.300      2.28422e+02       1.21429e+01      -3.70575e+01       3.83869e-04       2.51653e+02
 11.400      2.27793e+02       1.25123e+01      -3.70087e+01       3.80605e-04       2.48827e+02
 11.500      2.27162e+02       1.28889e+01      -3.69737e+01       3.77215e-04       2.45927e+02
 11.600      2.26530e+02       1.32668e+01      -3.69450e+01       3.73700e-04       2.42957e+02
 11.700      2.25898e+02       1.36400e+01      -3.69144e+01       3.70059e-04       2.39919e+02
 11.800      2.25268e+02       1.40027e+01      -3.68738e+01       3.66294e-04       2.36816e+02
 11.900      2.24642e+02       1.43487e+01      -3.68151e+01       3.62406e-04       2.33651e+02
 12.000      2.24020e+02       1.46720e+01      -3.67303e+01       3.58397e-04       2.30427e+02
 12.100      2.23404e+02       1.49667e+01      -3.66112e+01       3.54267e-04       2.27146e+02
 12.200      2.22796e+02       1.52267e+01      -3.64498e+01       3.50020e-04       2.23811e+02
 12.300      2.22196e+02       1.54460e+01      -3.62380e+01       3.45657e-04       2.20427e+02
 12.400      2.21607e+02       1.56187e+01      -3.59676e+01       3.41181e-04       2.16995e+02
 12.500      2.21029e+02       1.57387e+01      -3.56307e+01       3.36595e-04       2.13520e+02
 12.600      2.20464e+02       1.58001e+01      -3.52190e+01       3.31900e-04       2.10004e+02
 12.700      2.19914e+02       1.57967e+01      -3.47245e+01       3.27101e-04       2.06451e+02
 12.800      2.19380e+02       1.57227e+01      -3.41391e+01       3.22200e-04       2.02864e+02
 12.900      2.18863e+02       1.55721e+01      -3.34547e+01       3.17202e-04       1.99246e+02
 13.000      2.18363e+02       1.53430e+01      -3.26688e+01       3.12115e-04       1.95604e+02
 13.100      2.17882e+02       1.50429e+01      -3.17911e+01       3.06962e-04       1.91950e+02
 13.200      2.17418e+02       1.46806e+01      -3.08325e+01       3.01764e-04       1.88298e+02
 13.300      2.16971e+02       1.42647e+01      -2.98043e+01       2.96542e-04       1.84659e+02
 13.400      2.16540e+02       1.38039e+01      -2.87176e+01       2.91316e-04       1.81044e+02
 13.500      2.16126e+02       1.33068e+01      -2.75835e+01       2.86105e-04       1.77465e+02
 13.600      2.15727e+02       1.27822e+01      -2.64133e+01       2.80926e-04       1.73931e+02
 13.700      2.15343e+02       1.22386e+01      -2.52181e+01       2.75795e-04       1.70451e+02
 13.800      2.14974e+02       1.16849e+01      -2.40089e+01       2.70728e-04       1.67032e+02
 13.900      2.14619e+02       1.11296e+01      -2.27970e+01       2.65738e-04       1.63683e+02
 14.000      2.14278e+02       1.05814e+01      -2.15935e+01       2.60839e-04       1.60411e+02
 14.100      2.13951e+02       1.00491e+01      -2.04096e+01       2.56043e-04       1.57220e+02
 14.200      2.13636e+02       9.54121e+00      -1.92564e+01       2.51361e-04       1.54118e+02
 14.300      2.13334e+02       9.06653e+00      -1.81451e+01       2.46803e-04       1.51110e+02
 14.400      2.13045e+02       8.63323e+00      -1.70862e+01       2.42377e-04       1.48198e+02
 14.500      2.12767e+02       8.24317e+00      -1.60831e+01       2.38083e-04       1.45383e+02
 14.600      2.12501e+02       7.89360e+00      -1.51337e+01       2.33915e-04       1.42660e+02
 14.700      2.12247e+02       7.58166e+00      -1.42360e+01       2.29866e-04       1.40023e+02
 14.800      2.12005e+02       7.30451e+00      -1.33877e+01       2.25930e-04       1.37468e+02
 14.900      2.11775e+02       7.05930e+00      -1.25868e+01       2.22102e-04       1.34992e+02
 15.000      2.11556e+02       6.84316e+00      -1.18310e+01       2.18376e-04       1.32590e+02
 15.100      2.11350e+02       6.65325e+00      -1.11183e+01       2.14746e-04       1.30259e+02
 15.200      2.11155e+02       6.48671e+00      -1.04466e+01       2.11208e-04       1.27995e+02
 15.300      2.10971e+02       6.34070e+00      -9.81360e+00       2.07757e-04       1.25795e+02
 15.400      2.10800e+02       6.21236e+00      -9.21727e+00       2.04389e-04       1.23655e+02
 15.500      2.10640e+02       6.09883e+00      -8.65544e+00       2.01099e-04       1.21572e+02
 15.600      2.10492e+02       5.99727e+00      -8.12599e+00       1.97884e-04       1.19544e+02
 15.700      2.10355e+02       5.90482e+00      -7.62677e+00       1.94738e-04       1.17567e+02
 15.800      2.10230e+02       5.81863e+00      -7.15565e+00       1.91659e-04       1.15640e+02
 15.900      2.10117e+02       5.73585e+00      -6.71048e+00       1.88644e-04       1.13759e+02
 16.000      2.10015e+02       5.65363e+00      -6.28914e+00       1.85688e-04       1.11922e+02
 16.100      2.09925e+02       5.56910e+00      -5.88948e+00       1.82788e-04       1.10127e+02
 16.200      2.09846e+02       5.47943e+00      -5.50937e+00       1.79942e-04       1.08371e+02
 16.300      2.09778e+02       5.38175e+00      -5.14668e+00       1.77146e-04       1.06653e+02
 16.400      2.09722e+02       5.27322e+00      -4.79925e+00       1.74398e-04       1.04971e+02
 16.500      2.09678e+02       5.15098e+00      -4.46495e+00       1.71696e-04       1.03322e+02
 16.600      2.09645e+02       5.01218e+00      -4.14165e+00       1.69035e-04       1.01705e+02
 16.700      2.09623e+02       4.85397e+00      -3.82721e+00       1.66415e-04       1.00118e+02
 16.800      2.09612e+02       4.67404e+00      -3.51980e+00       1.63833e-04       9.85598e+01
 16.900      2.09613e+02       4.47280e+00      -3.21908e+00       1.61288e-04       9.70288e+01
 17.000      2.09624e+02       4.25154e+00      -2.92520e+00       1.58778e-04       9.55242e+01
 17.100      2.09645e+02       4.01152e+00      -2.63829e+00       1.56304e-04       9.40452e+01
 17.200      2.09677e+02       3.75401e+00      -2.35851e+00       1.53863e-04       9.25908e+01
 17.300      2.09719e+02       3.48031e+00      -2.08601e+00       1.51456e-04       9.11602e+01
 17.400      2.09770e+02       3.19167e+00      -1.82090e+00       1.49080e-04       8.97526e+01
 17.500      2.09831e+02       2.88936e+00      -1.56335e+00       1.46737e-04       8.83672e+01
 17.600      2.09901e+02       2.57467e+00      -1.31350e+00       1.44424e-04       8.70032e+01
 17.700      2.09980e+02       2.24886e+00      -1.07149e+00       1.42141e-04       8.56599e+01
 17.800      2.10067e+02       1.91322e+00      -8.37467e-01       1.39887e-04       8.43367e+01
 17.900      2.10162e+02       1.56900e+00      -6.11567e-01       1.37662e-04       8.30328e+01
 18.000      2.10265e+02       1.21749e+00      -3.93937e-01       1.35465e-04       8.17477e+01
 18.100      2.10376e+02       8.59964e-01      -1.84720e-01       1.33295e-04       8.04807e+01
 18.200      2.10494e+02       4.97688e-01       1.59387e-02       1.31152e-04       7.92312e+01
 18.300      2.10619e+02       1.31945e-01       2.07894e-01       1.29035e-04       7.79987e+01
 18.400      2.10751e+02      -2.36005e-01       3.91008e-01       1.26944e-04       7.67826e+01
 18.500      2.10890e+02      -6.04880e-01       5.65136e-01       1.24877e-04       7.55825e+01
 18.600      2.11035e+02      -9.73409e-01       7.30133e-01       1.22836e-04       7.43978e+01
 18.700      2.11185e+02      -1.34032e+00       8.85857e-01       1.20818e-04       7.32280e+01
 18.800      2.11342e+02      -1.70432e+00       1.03216e+00       1.18824e-04       7.20728e+01
 18.900      2.11503e+02      -2.06417e+00       1.16891e+00       1.16853e-04       7.09317e+01
 19.000      2.11670e+02      -2.41858e+00       1.29595e+00       1.14905e-04       6.98042e+01
 19.100      2.11842e+02      -2.76656e+00       1.41328e+00       1.12980e-04       6.86903e+01
 19.200      2.12017e+02      -3.10784e+00       1.52120e+00       1.11078e-04       6.75901e+01
 19.300      2.12197e+02      -3.44222e+00       1.62006e+00       1.09201e-04       6.65041e+01
 19.400      2.12379e+02      -3.76952e+00       1.71022e+00       1.07349e-04       6.54324e+01
 19.500      2.12565e+02      -4.08957e+00       1.79203e+00       1.05523e-04       6.43754e+01
 19.600      2.12752e+02      -4.40218e+00       1.86584e+00       1.03723e-04       6.33334e+01
 19.700      2.12942e+02      -4.70716e+00       1.93200e+00       1.01951e-04       6.23065e+01
 19.800      2.13132e+02      -5.00432e+00       1.99086e+00       1.00206e-04       6.12950e+01
 19.900      2.13323e+02      -5.29350e+00       2.04278e+00       9.84896e-05       6.02990e+01
 20.000      2.13514e+02      -5.57450e+00       2.08811e+00       9.68016e-05       5.93186e+01
 20.100      2.13705e+02      -5.84713e+00       2.12720e+00       9.51426e-05       5.83541e+01
 20.200      2.13895e+02      -6.11122e+00       2.16041e+00       9.35128e-05       5.74056e+01
 20.300      2.14084e+02      -6.36658e+00       2.18808e+00       9.19127e-05       5.64730e+01
