# Data Source: NASA MERRA (version 2)
# Model Time = 2011-01-31 18:00:00
# Location = [  39.1026,  -84.5123 ]
# Fields = [ Z(km), T(K), U(m/s), V(m/s), R(g/cm3), P(mbar) ]
# Ground Height = 0.165
  0.000      2.71016e+02      -2.27567e+00      -6.27934e-01       1.31827e-03       1.02537e+03
  0.100      2.70174e+02      -2.81559e+00      -6.02227e-01       1.30569e-03       1.01243e+03
  0.200      2.69502e+02      -3.20230e+00      -5.77355e-01       1.29247e-03       9.99687e+02
  0.300      2.68826e+02      -3.59288e+00      -5.52463e-01       1.27941e-03       9.87104e+02
  0.400      2.67971e+02      -4.14444e+00      -5.26690e-01       1.26729e-03       9.74647e+02
  0.500      2.67005e+02      -4.90666e+00      -4.16733e-01       1.25577e-03       9.62299e+02
  0.600      2.66882e+02      -5.53477e+00       1.63519e-01       1.24041e-03       9.50092e+02
  0.700      2.68377e+02      -5.65007e+00       1.47736e+00       1.21789e-03       9.38067e+02
  0.800      2.70705e+02      -5.10549e+00       3.00113e+00       1.19222e-03       9.26263e+02
  0.900      2.72822e+02      -3.86807e+00       4.11369e+00       1.16822e-03       9.14712e+02
  1.000      2.74456e+02      -2.20917e+00       4.76981e+00       1.14690e-03       9.03397e+02
  1.100      2.75604e+02      -4.85507e-01       5.11819e+00       1.12807e-03       8.92286e+02
  1.200      2.76301e+02       1.15110e+00       5.25925e+00       1.11144e-03       8.81354e+02
  1.300      2.76603e+02       2.67104e+00       5.26450e+00       1.09665e-03       8.70581e+02
  1.400      2.76567e+02       4.04636e+00       5.20505e+00       1.08340e-03       8.59947e+02
  1.500      2.76249e+02       5.24909e+00       5.15203e+00       1.07139e-03       8.49434e+02
  1.600      2.75710e+02       6.26309e+00       5.15772e+00       1.06033e-03       8.39028e+02
  1.700      2.75029e+02       7.11246e+00       5.21025e+00       1.04991e-03       8.28725e+02
  1.800      2.74288e+02       7.82988e+00       5.28415e+00       1.03978e-03       8.18525e+02
  1.900      2.73569e+02       8.44800e+00       5.35393e+00       1.02966e-03       8.08427e+02
  2.000      2.72955e+02       8.99948e+00       5.39414e+00       1.01921e-03       7.98431e+02
  2.100      2.72492e+02       9.51258e+00       5.38892e+00       1.00829e-03       7.88537e+02
  2.200      2.72141e+02       1.00045e+01       5.34660e+00       9.97055e-04       7.78745e+02
  2.300      2.71847e+02       1.04908e+01       5.27921e+00       9.85715e-04       7.69056e+02
  2.400      2.71556e+02       1.09869e+01       5.19881e+00       9.74473e-04       7.59471e+02
  2.500      2.71214e+02       1.15084e+01       5.11746e+00       9.63522e-04       7.49991e+02
  2.600      2.70782e+02       1.20632e+01       5.04345e+00       9.52999e-04       7.40616e+02
  2.700      2.70275e+02       1.26292e+01       4.97011e+00       9.42833e-04       7.31344e+02
  2.800      2.69724e+02       1.31768e+01       4.88706e+00       9.32910e-04       7.22173e+02
  2.900      2.69162e+02       1.36764e+01       4.78389e+00       9.23116e-04       7.13102e+02
  3.000      2.68618e+02       1.40982e+01       4.65020e+00       9.13344e-04       7.04127e+02
  3.100      2.68122e+02       1.44142e+01       4.47619e+00       9.03495e-04       6.95248e+02
  3.200      2.67677e+02       1.46246e+01       4.26355e+00       8.93561e-04       6.86463e+02
  3.300      2.67263e+02       1.47554e+01       4.02446e+00       8.83614e-04       6.77772e+02
  3.400      2.66859e+02       1.48336e+01       3.77144e+00       8.73728e-04       6.69176e+02
  3.500      2.66444e+02       1.48863e+01       3.51705e+00       8.63973e-04       6.60675e+02
  3.600      2.65995e+02       1.49403e+01       3.27382e+00       8.54417e-04       6.52268e+02
  3.700      2.65494e+02       1.50205e+01       3.05358e+00       8.45119e-04       6.43954e+02
  3.800      2.64938e+02       1.51315e+01       2.86158e+00       8.36081e-04       6.35733e+02
  3.900      2.64334e+02       1.52668e+01       2.69941e+00       8.27274e-04       6.27602e+02
  4.000      2.63687e+02       1.54197e+01       2.56867e+00       8.18672e-04       6.19556e+02
  4.100      2.63006e+02       1.55837e+01       2.47094e+00       8.10245e-04       6.11595e+02
  4.200      2.62296e+02       1.57521e+01       2.40778e+00       8.01970e-04       6.03714e+02
  4.300      2.61564e+02       1.59185e+01       2.38065e+00       7.93822e-04       5.95913e+02
  4.400      2.60816e+02       1.60796e+01       2.38802e+00       7.85779e-04       5.88189e+02
  4.500      2.60057e+02       1.62354e+01       2.42563e+00       7.77828e-04       5.80543e+02
  4.600      2.59293e+02       1.63858e+01       2.48909e+00       7.69951e-04       5.72974e+02
  4.700      2.58526e+02       1.65308e+01       2.57402e+00       7.62136e-04       5.65482e+02
  4.800      2.57764e+02       1.66704e+01       2.67604e+00       7.54366e-04       5.58067e+02
  4.900      2.57010e+02       1.68046e+01       2.79076e+00       7.46629e-04       5.50728e+02
  5.000      2.56269e+02       1.69340e+01       2.91364e+00       7.38913e-04       5.43465e+02
  5.100      2.55541e+02       1.70622e+01       3.03914e+00       7.31219e-04       5.36279e+02
  5.200      2.54826e+02       1.71940e+01       3.16142e+00       7.23550e-04       5.29168e+02
  5.300      2.54120e+02       1.73341e+01       3.27462e+00       7.15912e-04       5.22133e+02
  5.400      2.53425e+02       1.74871e+01       3.37289e+00       7.08308e-04       5.15173e+02
  5.500      2.52738e+02       1.76580e+01       3.45039e+00       7.00742e-04       5.08288e+02
  5.600      2.52058e+02       1.78512e+01       3.50126e+00       6.93218e-04       5.01478e+02
  5.700      2.51384e+02       1.80711e+01       3.52024e+00       6.85741e-04       4.94742e+02
  5.800      2.50713e+02       1.83163e+01       3.50670e+00       6.78315e-04       4.88080e+02
  5.900      2.50043e+02       1.85834e+01       3.46218e+00       6.70950e-04       4.81489e+02
  6.000      2.49369e+02       1.88688e+01       3.38826e+00       6.63650e-04       4.74968e+02
  6.100      2.48690e+02       1.91689e+01       3.28649e+00       6.56423e-04       4.68515e+02
  6.200      2.48000e+02       1.94801e+01       3.15843e+00       6.49276e-04       4.62129e+02
  6.300      2.47298e+02       1.97988e+01       3.00565e+00       6.42214e-04       4.55808e+02
  6.400      2.46580e+02       2.01215e+01       2.82971e+00       6.35243e-04       4.49551e+02
  6.500      2.45843e+02       2.04447e+01       2.63314e+00       6.28368e-04       4.43357e+02
  6.600      2.45088e+02       2.07655e+01       2.42158e+00       6.21592e-04       4.37229e+02
  6.700      2.44315e+02       2.10808e+01       2.20129e+00       6.14915e-04       4.31169e+02
  6.800      2.43525e+02       2.13877e+01       1.97855e+00       6.08339e-04       4.25178e+02
  6.900      2.42718e+02       2.16834e+01       1.75961e+00       6.01863e-04       4.19259e+02
  7.000      2.41896e+02       2.19648e+01       1.55074e+00       5.95490e-04       4.13414e+02
  7.100      2.41058e+02       2.22292e+01       1.35822e+00       5.89220e-04       4.07643e+02
  7.200      2.40205e+02       2.24734e+01       1.18830e+00       5.83054e-04       4.01950e+02
  7.300      2.39338e+02       2.26950e+01       1.04676e+00       5.76991e-04       3.96335e+02
  7.400      2.38459e+02       2.28955e+01       9.33189e-01       5.71017e-04       3.90791e+02
  7.500      2.37570e+02       2.30792e+01       8.43113e-01       5.65110e-04       3.85307e+02
  7.600      2.36675e+02       2.32506e+01       7.71966e-01       5.59249e-04       3.79873e+02
  7.700      2.35775e+02       2.34139e+01       7.15184e-01       5.53411e-04       3.74480e+02
  7.800      2.34874e+02       2.35736e+01       6.68202e-01       5.47579e-04       3.69117e+02
  7.900      2.33975e+02       2.37341e+01       6.26459e-01       5.41731e-04       3.63776e+02
  8.000      2.33079e+02       2.38997e+01       5.85390e-01       5.35849e-04       3.58449e+02
  8.100      2.32190e+02       2.40749e+01       5.40431e-01       5.29916e-04       3.53128e+02
  8.200      2.31310e+02       2.42639e+01       4.87091e-01       5.23916e-04       3.47807e+02
  8.300      2.30442e+02       2.44675e+01       4.23472e-01       5.17858e-04       3.42495e+02
  8.400      2.29586e+02       2.46822e+01       3.50944e-01       5.11785e-04       3.37222e+02
  8.500      2.28744e+02       2.49042e+01       2.71080e-01       5.05740e-04       3.32016e+02
  8.600      2.27917e+02       2.51298e+01       1.85458e-01       4.99763e-04       3.26905e+02
  8.700      2.27105e+02       2.53551e+01       9.56552e-02       4.93892e-04       3.21915e+02
  8.800      2.26311e+02       2.55763e+01       3.24505e-03       4.88165e-04       3.17069e+02
  8.900      2.25534e+02       2.57896e+01      -9.01942e-02       4.82615e-04       3.12389e+02
  9.000      2.24777e+02       2.59913e+01      -1.83088e-01       4.77277e-04       3.07896e+02
  9.100      2.24039e+02       2.61776e+01      -2.73860e-01       4.72182e-04       3.03610e+02
  9.200      2.23324e+02       2.63446e+01      -3.60933e-01       4.67361e-04       2.99550e+02
  9.300      2.22630e+02       2.64904e+01      -4.42665e-01       4.62827e-04       2.95722e+02
  9.400      2.21959e+02       2.66184e+01      -5.17219e-01       4.58547e-04       2.92104e+02
  9.500      2.21310e+02       2.67331e+01      -5.82728e-01       4.54484e-04       2.88670e+02
  9.600      2.20684e+02       2.68387e+01      -6.37322e-01       4.50600e-04       2.85394e+02
  9.700      2.20081e+02       2.69396e+01      -6.79131e-01       4.46859e-04       2.82251e+02
  9.800      2.19502e+02       2.70403e+01      -7.06286e-01       4.43227e-04       2.79220e+02
  9.900      2.18945e+02       2.71449e+01      -7.16919e-01       4.39671e-04       2.76277e+02
 10.000      2.18412e+02       2.72580e+01      -7.09160e-01       4.36158e-04       2.73402e+02
 10.100      2.17902e+02       2.73839e+01      -6.81139e-01       4.32656e-04       2.70574e+02
 10.200      2.17416e+02       2.75269e+01      -6.30989e-01       4.29136e-04       2.67774e+02
 10.300      2.16954e+02       2.76913e+01      -5.56839e-01       4.25568e-04       2.64984e+02
 10.400      2.16516e+02       2.78817e+01      -4.56820e-01       4.21925e-04       2.62184e+02
 10.500      2.16102e+02       2.81022e+01      -3.29063e-01       4.18178e-04       2.59359e+02
 10.600      2.15712e+02       2.83573e+01      -1.71699e-01       4.14301e-04       2.56491e+02
 10.700      2.15347e+02       2.86514e+01       1.71401e-02       4.10270e-04       2.53566e+02
 10.800      2.15006e+02       2.89888e+01       2.39326e-01       4.06062e-04       2.50568e+02
 10.900      2.14690e+02       2.93727e+01       4.95975e-01       4.01656e-04       2.47485e+02
 11.000      2.14400e+02       2.97982e+01       7.82904e-01       3.97053e-04       2.44318e+02
 11.100      2.14137e+02       3.02572e+01       1.09364e+00       3.92261e-04       2.41073e+02
 11.200      2.13901e+02       3.07412e+01       1.42169e+00       3.87288e-04       2.37755e+02
 11.300      2.13695e+02       3.12419e+01       1.76058e+00       3.82144e-04       2.34370e+02
 11.400      2.13518e+02       3.17511e+01       2.10383e+00       3.76836e-04       2.30924e+02
 11.500      2.13373e+02       3.22603e+01       2.44494e+00       3.71376e-04       2.27423e+02
 11.600      2.13260e+02       3.27613e+01       2.77745e+00       3.65771e-04       2.23873e+02
 11.700      2.13181e+02       3.32457e+01       3.09486e+00       3.60031e-04       2.20278e+02
 11.800      2.13136e+02       3.37053e+01       3.39070e+00       3.54166e-04       2.16644e+02
 11.900      2.13127e+02       3.41316e+01       3.65847e+00       3.48186e-04       2.12976e+02
 12.000      2.13154e+02       3.45164e+01       3.89170e+00       3.42099e-04       2.09280e+02
 12.100      2.13220e+02       3.48513e+01       4.08390e+00       3.35916e-04       2.05561e+02
 12.200      2.13324e+02       3.51280e+01       4.22859e+00       3.29647e-04       2.01823e+02
 12.300      2.13469e+02       3.53386e+01       4.31955e+00       3.23301e-04       1.98072e+02
 12.400      2.13651e+02       3.54817e+01       4.35629e+00       3.16901e-04       1.94316e+02
 12.500      2.13863e+02       3.55629e+01       4.34382e+00       3.10479e-04       1.90568e+02
 12.600      2.14101e+02       3.55878e+01       4.28741e+00       3.04066e-04       1.86840e+02
 12.700      2.14357e+02       3.55621e+01       4.19230e+00       2.97692e-04       1.83141e+02
 12.800      2.14625e+02       3.54915e+01       4.06374e+00       2.91382e-04       1.79484e+02
 12.900      2.14899e+02       3.53816e+01       3.90699e+00       2.85160e-04       1.75876e+02
 13.000      2.15173e+02       3.52381e+01       3.72728e+00       2.79050e-04       1.72326e+02
 13.100      2.15440e+02       3.50667e+01       3.52988e+00       2.73070e-04       1.68843e+02
 13.200      2.15694e+02       3.48731e+01       3.32003e+00       2.67241e-04       1.65433e+02
 13.300      2.15929e+02       3.46629e+01       3.10299e+00       2.61577e-04       1.62103e+02
 13.400      2.16138e+02       3.44418e+01       2.88400e+00       2.56095e-04       1.58860e+02
 13.500      2.16315e+02       3.42156e+01       2.66831e+00       2.50807e-04       1.55707e+02
 13.600      2.16454e+02       3.39897e+01       2.46118e+00       2.45726e-04       1.52650e+02
 13.700      2.16548e+02       3.37701e+01       2.26785e+00       2.40862e-04       1.49694e+02
 13.800      2.16593e+02       3.35607e+01       2.09216e+00       2.36220e-04       1.46839e+02
 13.900      2.16592e+02       3.33615e+01       1.93374e+00       2.31786e-04       1.44083e+02
 14.000      2.16547e+02       3.31713e+01       1.79151e+00       2.27548e-04       1.41419e+02
 14.100      2.16461e+02       3.29892e+01       1.66435e+00       2.23491e-04       1.38842e+02
 14.200      2.16337e+02       3.28141e+01       1.55116e+00       2.19602e-04       1.36348e+02
 14.300      2.16178e+02       3.26451e+01       1.45084e+00       2.15869e-04       1.33932e+02
 14.400      2.15988e+02       3.24811e+01       1.36228e+00       2.12281e-04       1.31590e+02
 14.500      2.15770e+02       3.23210e+01       1.28437e+00       2.08828e-04       1.29319e+02
 14.600      2.15525e+02       3.21640e+01       1.21603e+00       2.05500e-04       1.27113e+02
 14.700      2.15259e+02       3.20089e+01       1.15613e+00       2.02286e-04       1.24970e+02
 14.800      2.14972e+02       3.18547e+01       1.10358e+00       1.99178e-04       1.22887e+02
 14.900      2.14669e+02       3.17005e+01       1.05727e+00       1.96167e-04       1.20859e+02
 15.000      2.14353e+02       3.15452e+01       1.01610e+00       1.93246e-04       1.18884e+02
 15.100      2.14027e+02       3.13878e+01       9.78966e-01       1.90406e-04       1.16958e+02
 15.200      2.13692e+02       3.12273e+01       9.44759e-01       1.87641e-04       1.15080e+02
 15.300      2.13354e+02       3.10626e+01       9.12378e-01       1.84943e-04       1.13245e+02
 15.400      2.13014e+02       3.08927e+01       8.80719e-01       1.82305e-04       1.11453e+02
 15.500      2.12677e+02       3.07167e+01       8.48677e-01       1.79722e-04       1.09699e+02
 15.600      2.12343e+02       3.05335e+01       8.15149e-01       1.77188e-04       1.07983e+02
 15.700      2.12018e+02       3.03421e+01       7.79030e-01       1.74696e-04       1.06301e+02
 15.800      2.11704e+02       3.01414e+01       7.39216e-01       1.72241e-04       1.04652e+02
 15.900      2.11403e+02       2.99305e+01       6.94603e-01       1.69819e-04       1.03034e+02
 16.000      2.11120e+02       2.97083e+01       6.44087e-01       1.67423e-04       1.01444e+02
 16.100      2.10856e+02       2.94739e+01       5.86564e-01       1.65050e-04       9.98810e+01
 16.200      2.10614e+02       2.92265e+01       5.21286e-01       1.62695e-04       9.83435e+01
 16.300      2.10395e+02       2.89665e+01       4.48639e-01       1.60359e-04       9.68304e+01
 16.400      2.10197e+02       2.86946e+01       3.69232e-01       1.58041e-04       9.53410e+01
 16.500      2.10020e+02       2.84113e+01       2.83676e-01       1.55742e-04       9.38745e+01
 16.600      2.09862e+02       2.81174e+01       1.92580e-01       1.53461e-04       9.24302e+01
 16.700      2.09724e+02       2.78133e+01       9.65557e-02       1.51198e-04       9.10075e+01
 16.800      2.09605e+02       2.74997e+01      -3.78580e-03       1.48954e-04       8.96057e+01
 16.900      2.09503e+02       2.71773e+01      -1.07838e-01       1.46728e-04       8.82241e+01
 17.000      2.09419e+02       2.68466e+01      -2.14988e-01       1.44521e-04       8.68621e+01
 17.100      2.09352e+02       2.65082e+01      -3.24627e-01       1.42333e-04       8.55193e+01
 17.200      2.09300e+02       2.61628e+01      -4.36144e-01       1.40163e-04       8.41949e+01
 17.300      2.09263e+02       2.58109e+01      -5.48927e-01       1.38013e-04       8.28885e+01
 17.400      2.09242e+02       2.54533e+01      -6.62370e-01       1.35881e-04       8.15996e+01
 17.500      2.09233e+02       2.50904e+01      -7.75860e-01       1.33768e-04       8.03276e+01
 17.600      2.09239e+02       2.47230e+01      -8.88789e-01       1.31674e-04       7.90721e+01
 17.700      2.09256e+02       2.43515e+01      -1.00054e+00       1.29599e-04       7.78326e+01
 17.800      2.09286e+02       2.39767e+01      -1.11051e+00       1.27543e-04       7.66088e+01
 17.900      2.09326e+02       2.35992e+01      -1.21809e+00       1.25507e-04       7.54002e+01
 18.000      2.09377e+02       2.32195e+01      -1.32267e+00       1.23489e-04       7.42063e+01
 18.100      2.09438e+02       2.28383e+01      -1.42364e+00       1.21491e-04       7.30269e+01
 18.200      2.09508e+02       2.24562e+01      -1.52038e+00       1.19513e-04       7.18615e+01
 18.300      2.09586e+02       2.20738e+01      -1.61228e+00       1.17554e-04       7.07099e+01
 18.400      2.09672e+02       2.16917e+01      -1.69875e+00       1.15614e-04       6.95716e+01
 18.500      2.09765e+02       2.13104e+01      -1.77971e+00       1.13694e-04       6.84466e+01
 18.600      2.09865e+02       2.09301e+01      -1.85576e+00       1.11795e-04       6.73355e+01
 18.700      2.09971e+02       2.05512e+01      -1.92759e+00       1.09918e-04       6.62385e+01
 18.800      2.10082e+02       2.01739e+01      -1.99585e+00       1.08065e-04       6.51560e+01
 18.900      2.10198e+02       1.97984e+01      -2.06122e+00       1.06235e-04       6.40883e+01
 19.000      2.10319e+02       1.94250e+01      -2.12438e+00       1.04430e-04       6.30358e+01
 19.100      2.10444e+02       1.90540e+01      -2.18598e+00       1.02651e-04       6.19986e+01
 19.200      2.10572e+02       1.86856e+01      -2.24669e+00       1.00898e-04       6.09771e+01
 19.300      2.10703e+02       1.83202e+01      -2.30720e+00       9.91725e-05       5.99714e+01
 19.400      2.10837e+02       1.79579e+01      -2.36816e+00       9.74740e-05       5.89817e+01
 19.500      2.10972e+02       1.75991e+01      -2.43026e+00       9.58037e-05       5.80082e+01
 19.600      2.11109e+02       1.72439e+01      -2.49415e+00       9.41618e-05       5.70510e+01
 19.700      2.11247e+02       1.68927e+01      -2.56051e+00       9.25487e-05       5.61103e+01
 19.800      2.11385e+02       1.65458e+01      -2.63000e+00       9.09650e-05       5.51861e+01
 19.900      2.11522e+02       1.62033e+01      -2.70330e+00       8.94107e-05       5.42785e+01
 20.000      2.11659e+02       1.58656e+01      -2.78108e+00       8.78862e-05       5.33875e+01
 20.100      2.11795e+02       1.55329e+01      -2.86401e+00       8.63916e-05       5.25133e+01
 20.200      2.11929e+02       1.52055e+01      -2.95275e+00       8.49272e-05       5.16558e+01
 20.300      2.12061e+02       1.48836e+01      -3.04798e+00       8.34929e-05       5.08150e+01
