# Data Source: NASA MERRA (version 2)
# Model Time = 2011-06-19 18:00:00
# Location = [  39.1026,  -84.5123 ]
# Fields = [ Z(km), T(K), U(m/s), V(m/s), R(g/cm3), P(mbar) ]
# Ground Height = 0.165
  0.000      2.95962e+02       1.67768e+00       3.07560e+00       1.18647e-03       1.00780e+03
  0.100      2.95439e+02       1.57523e+00       3.06387e+00       1.17483e-03       9.96154e+02
  0.200      2.94870e+02       1.53402e+00       3.09964e+00       1.16351e-03       9.84647e+02
  0.300      2.94112e+02       1.73861e+00       3.32600e+00       1.15306e-03       9.73297e+02
  0.400      2.93137e+02       2.27985e+00       3.79043e+00       1.14359e-03       9.62105e+02
  0.500      2.92205e+02       3.00847e+00       4.29522e+00       1.13404e-03       9.51036e+02
  0.600      2.91561e+02       3.76744e+00       4.65110e+00       1.12342e-03       9.40058e+02
  0.700      2.91119e+02       4.56002e+00       4.91933e+00       1.11211e-03       9.29177e+02
  0.800      2.90695e+02       5.43779e+00       5.23396e+00       1.10082e-03       9.18407e+02
  0.900      2.90222e+02       6.38555e+00       5.58675e+00       1.08982e-03       9.07753e+02
  1.000      2.89723e+02       7.33857e+00       5.86424e+00       1.07901e-03       8.97206e+02
  1.100      2.89215e+02       8.24239e+00       6.00050e+00       1.06833e-03       8.86760e+02
  1.200      2.88708e+02       9.06372e+00       6.02282e+00       1.05772e-03       8.76417e+02
  1.300      2.88211e+02       9.77161e+00       5.96861e+00       1.04716e-03       8.66176e+02
  1.400      2.87731e+02       1.03351e+01       5.87527e+00       1.03663e-03       8.56037e+02
  1.500      2.87276e+02       1.07240e+01       5.77984e+00       1.02610e-03       8.46000e+02
  1.600      2.86847e+02       1.09364e+01       5.70479e+00       1.01556e-03       8.36064e+02
  1.700      2.86439e+02       1.10072e+01       5.65362e+00       1.00505e-03       8.26231e+02
  1.800      2.86041e+02       1.09738e+01       5.62856e+00       9.94591e-04       8.16497e+02
  1.900      2.85647e+02       1.08736e+01       5.63184e+00       9.84211e-04       8.06864e+02
  2.000      2.85249e+02       1.07438e+01       5.66563e+00       9.73938e-04       7.97330e+02
  2.100      2.84840e+02       1.06109e+01       5.72439e+00       9.63798e-04       7.87895e+02
  2.200      2.84411e+02       1.04824e+01       5.78894e+00       9.53810e-04       7.78556e+02
  2.300      2.83955e+02       1.03635e+01       5.83864e+00       9.43997e-04       7.69312e+02
  2.400      2.83467e+02       1.02597e+01       5.85290e+00       9.34377e-04       7.60162e+02
  2.500      2.82937e+02       1.01763e+01       5.81108e+00       9.24970e-04       7.51104e+02
  2.600      2.82362e+02       1.01178e+01       5.69625e+00       9.15789e-04       7.42136e+02
  2.700      2.81743e+02       1.00831e+01       5.51273e+00       9.06820e-04       7.33257e+02
  2.800      2.81087e+02       1.00692e+01       5.27252e+00       8.98039e-04       7.24465e+02
  2.900      2.80399e+02       1.00733e+01       4.98760e+00       8.89420e-04       7.15757e+02
  3.000      2.79686e+02       1.00922e+01       4.66996e+00       8.80942e-04       7.07131e+02
  3.100      2.78954e+02       1.01231e+01       4.33160e+00       8.72581e-04       6.98586e+02
  3.200      2.78208e+02       1.01626e+01       3.98379e+00       8.64316e-04       6.90119e+02
  3.300      2.77457e+02       1.02067e+01       3.63602e+00       8.56123e-04       6.81732e+02
  3.400      2.76707e+02       1.02513e+01       3.29752e+00       8.47981e-04       6.73423e+02
  3.500      2.75966e+02       1.02923e+01       2.97755e+00       8.39866e-04       6.65193e+02
  3.600      2.75242e+02       1.03256e+01       2.68532e+00       8.31759e-04       6.57042e+02
  3.700      2.74541e+02       1.03471e+01       2.43007e+00       8.23636e-04       6.48970e+02
  3.800      2.73870e+02       1.03556e+01       2.22063e+00       8.15485e-04       6.40976e+02
  3.900      2.73231e+02       1.03579e+01       2.06470e+00       8.07299e-04       6.33063e+02
  4.000      2.72626e+02       1.03621e+01       1.96980e+00       7.99078e-04       6.25229e+02
  4.100      2.72057e+02       1.03765e+01       1.94345e+00       7.90820e-04       6.17475e+02
  4.200      2.71525e+02       1.04092e+01       1.99317e+00       7.82525e-04       6.09803e+02
  4.300      2.71032e+02       1.04685e+01       2.12647e+00       7.74190e-04       6.02212e+02
  4.400      2.70579e+02       1.05618e+01       2.34926e+00       7.65817e-04       5.94703e+02
  4.500      2.70162e+02       1.06917e+01       2.65113e+00       7.57420e-04       5.87276e+02
  4.600      2.69774e+02       1.08575e+01       3.01223e+00       7.49021e-04       5.79930e+02
  4.700      2.69409e+02       1.10587e+01       3.41257e+00       7.40641e-04       5.72666e+02
  4.800      2.69058e+02       1.12944e+01       3.83218e+00       7.32301e-04       5.65481e+02
  4.900      2.68716e+02       1.15642e+01       4.25109e+00       7.24021e-04       5.58377e+02
  5.000      2.68376e+02       1.18674e+01       4.64932e+00       7.15820e-04       5.51352e+02
  5.100      2.68030e+02       1.22031e+01       5.00854e+00       7.07714e-04       5.44407e+02
  5.200      2.67677e+02       1.25702e+01       5.32228e+00       6.99711e-04       5.37540e+02
  5.300      2.67314e+02       1.29668e+01       5.58934e+00       6.91810e-04       5.30750e+02
  5.400      2.66941e+02       1.33913e+01       5.80852e+00       6.84015e-04       5.24038e+02
  5.500      2.66557e+02       1.38422e+01       5.97861e+00       6.76325e-04       5.17401e+02
  5.600      2.66160e+02       1.43177e+01       6.09842e+00       6.68744e-04       5.10839e+02
  5.700      2.65750e+02       1.48163e+01       6.16675e+00       6.61270e-04       5.04352e+02
  5.800      2.65324e+02       1.53361e+01       6.18246e+00       6.53906e-04       4.97937e+02
  5.900      2.64885e+02       1.58705e+01       6.14722e+00       6.46650e-04       4.91595e+02
  6.000      2.64432e+02       1.64051e+01       6.06727e+00       6.39494e-04       4.85324e+02
  6.100      2.63967e+02       1.69245e+01       5.94922e+00       6.32431e-04       4.79121e+02
  6.200      2.63493e+02       1.74135e+01       5.79970e+00       6.25455e-04       4.72985e+02
  6.300      2.63011e+02       1.78570e+01       5.62534e+00       6.18559e-04       4.66914e+02
  6.400      2.62523e+02       1.82397e+01       5.43277e+00       6.11736e-04       4.60907e+02
  6.500      2.62030e+02       1.85463e+01       5.22861e+00       6.04980e-04       4.54961e+02
  6.600      2.61535e+02       1.87618e+01       5.01949e+00       5.98285e-04       4.49077e+02
  6.700      2.61038e+02       1.88786e+01       4.81094e+00       5.91649e-04       4.43252e+02
  6.800      2.60537e+02       1.89093e+01       4.60579e+00       5.85081e-04       4.37490e+02
  6.900      2.60029e+02       1.88694e+01       4.40646e+00       5.78588e-04       4.31791e+02
  7.000      2.59512e+02       1.87743e+01       4.21533e+00       5.72179e-04       4.26159e+02
  7.100      2.58982e+02       1.86395e+01       4.03482e+00       5.65863e-04       4.20594e+02
  7.200      2.58438e+02       1.84806e+01       3.86733e+00       5.59647e-04       4.15099e+02
  7.300      2.57876e+02       1.83129e+01       3.71527e+00       5.53538e-04       4.09676e+02
  7.400      2.57294e+02       1.81521e+01       3.58103e+00       5.47544e-04       4.04325e+02
  7.500      2.56689e+02       1.80136e+01       3.46703e+00       5.41672e-04       3.99049e+02
  7.600      2.56060e+02       1.79075e+01       3.37549e+00       5.35921e-04       3.93845e+02
  7.700      2.55409e+02       1.78319e+01       3.30824e+00       5.30276e-04       3.88705e+02
  7.800      2.54737e+02       1.77827e+01       3.26705e+00       5.24718e-04       3.83619e+02
  7.900      2.54047e+02       1.77561e+01       3.25369e+00       5.19230e-04       3.78578e+02
  8.000      2.53340e+02       1.77483e+01       3.26992e+00       5.13797e-04       3.73575e+02
  8.100      2.52620e+02       1.77553e+01       3.31752e+00       5.08403e-04       3.68601e+02
  8.200      2.51887e+02       1.77732e+01       3.39826e+00       5.03032e-04       3.63649e+02
  8.300      2.51144e+02       1.77981e+01       3.51389e+00       4.97669e-04       3.58712e+02
  8.400      2.50393e+02       1.78263e+01       3.66620e+00       4.92302e-04       3.53782e+02
  8.500      2.49636e+02       1.78536e+01       3.85693e+00       4.86916e-04       3.48854e+02
  8.600      2.48874e+02       1.78785e+01       4.08603e+00       4.81514e-04       3.43931e+02
  8.700      2.48108e+02       1.79033e+01       4.34970e+00       4.76125e-04       3.39035e+02
  8.800      2.47338e+02       1.79310e+01       4.64372e+00       4.70782e-04       3.34189e+02
  8.900      2.46563e+02       1.79645e+01       4.96384e+00       4.65515e-04       3.29415e+02
  9.000      2.45783e+02       1.80067e+01       5.30584e+00       4.60353e-04       3.24732e+02
  9.100      2.44999e+02       1.80608e+01       5.66548e+00       4.55326e-04       3.20161e+02
  9.200      2.44210e+02       1.81295e+01       6.03853e+00       4.50460e-04       3.15719e+02
  9.300      2.43415e+02       1.82159e+01       6.42075e+00       4.45780e-04       3.11423e+02
  9.400      2.42616e+02       1.83229e+01       6.80791e+00       4.41311e-04       3.07289e+02
  9.500      2.41812e+02       1.84534e+01       7.19577e+00       4.37077e-04       3.03332e+02
  9.600      2.41003e+02       1.86105e+01       7.58011e+00       4.33101e-04       2.99567e+02
  9.700      2.40189e+02       1.87957e+01       7.95784e+00       4.29394e-04       2.96000e+02
  9.800      2.39371e+02       1.90064e+01       8.32921e+00       4.25929e-04       2.92611e+02
  9.900      2.38548e+02       1.92397e+01       8.69500e+00       4.22678e-04       2.89380e+02
 10.000      2.37722e+02       1.94923e+01       9.05602e+00       4.19613e-04       2.86286e+02
 10.100      2.36893e+02       1.97611e+01       9.41306e+00       4.16707e-04       2.83312e+02
 10.200      2.36062e+02       2.00430e+01       9.76692e+00       4.13931e-04       2.80438e+02
 10.300      2.35230e+02       2.03348e+01       1.01184e+01       4.11262e-04       2.77647e+02
 10.400      2.34396e+02       2.06335e+01       1.04683e+01       4.08673e-04       2.74921e+02
 10.500      2.33561e+02       2.09357e+01       1.08175e+01       4.06140e-04       2.72244e+02
 10.600      2.32726e+02       2.12385e+01       1.11666e+01       4.03640e-04       2.69601e+02
 10.700      2.31892e+02       2.15387e+01       1.15166e+01       4.01149e-04       2.66977e+02
 10.800      2.31059e+02       2.18331e+01       1.18682e+01       3.98643e-04       2.64356e+02
 10.900      2.30228e+02       2.21186e+01       1.22222e+01       3.96102e-04       2.61726e+02
 11.000      2.29399e+02       2.23921e+01       1.25795e+01       3.93503e-04       2.59072e+02
 11.100      2.28572e+02       2.26504e+01       1.29407e+01       3.90825e-04       2.56382e+02
 11.200      2.27749e+02       2.28904e+01       1.33068e+01       3.88048e-04       2.53644e+02
 11.300      2.26930e+02       2.31090e+01       1.36785e+01       3.85152e-04       2.50845e+02
 11.400      2.26115e+02       2.33032e+01       1.40562e+01       3.82120e-04       2.47977e+02
 11.500      2.25306e+02       2.34733e+01       1.44354e+01       3.78944e-04       2.45035e+02
 11.600      2.24503e+02       2.36211e+01       1.48089e+01       3.75624e-04       2.42024e+02
 11.700      2.23709e+02       2.37486e+01       1.51696e+01       3.72161e-04       2.38944e+02
 11.800      2.22924e+02       2.38577e+01       1.55101e+01       3.68554e-04       2.35798e+02
 11.900      2.22150e+02       2.39502e+01       1.58233e+01       3.64805e-04       2.32589e+02
 12.000      2.21388e+02       2.40282e+01       1.61018e+01       3.60914e-04       2.29319e+02
 12.100      2.20639e+02       2.40934e+01       1.63386e+01       3.56884e-04       2.25991e+02
 12.200      2.19905e+02       2.41479e+01       1.65263e+01       3.52715e-04       2.22607e+02
 12.300      2.19186e+02       2.41936e+01       1.66577e+01       3.48409e-04       2.19172e+02
 12.400      2.18486e+02       2.42323e+01       1.67256e+01       3.43969e-04       2.15687e+02
 12.500      2.17803e+02       2.42659e+01       1.67228e+01       3.39396e-04       2.12155e+02
 12.600      2.17141e+02       2.42965e+01       1.66420e+01       3.34695e-04       2.08580e+02
 12.700      2.16500e+02       2.43259e+01       1.64760e+01       3.29868e-04       2.04965e+02
 12.800      2.15881e+02       2.43560e+01       1.62175e+01       3.24919e-04       2.01313e+02
 12.900      2.15286e+02       2.43885e+01       1.58602e+01       3.19852e-04       1.97628e+02
 13.000      2.14715e+02       2.44221e+01       1.54087e+01       3.14685e-04       1.93920e+02
 13.100      2.14168e+02       2.44535e+01       1.48749e+01       3.09443e-04       1.90203e+02
 13.200      2.13645e+02       2.44794e+01       1.42712e+01       3.04148e-04       1.86492e+02
 13.300      2.13145e+02       2.44963e+01       1.36098e+01       2.98825e-04       1.82799e+02
 13.400      2.12667e+02       2.45010e+01       1.29029e+01       2.93493e-04       1.79135e+02
 13.500      2.12213e+02       2.44900e+01       1.21626e+01       2.88174e-04       1.75513e+02
 13.600      2.11781e+02       2.44601e+01       1.14013e+01       2.82886e-04       1.71941e+02
 13.700      2.11370e+02       2.44077e+01       1.06312e+01       2.77647e-04       1.68430e+02
 13.800      2.10982e+02       2.43297e+01       9.86441e+00       2.72472e-04       1.64987e+02
 13.900      2.10615e+02       2.42225e+01       9.11323e+00       2.67378e-04       1.61621e+02
 14.000      2.10269e+02       2.40830e+01       8.38986e+00       2.62379e-04       1.58338e+02
 14.100      2.09944e+02       2.39076e+01       7.70653e+00       2.57486e-04       1.55146e+02
 14.200      2.09640e+02       2.36930e+01       7.07547e+00       2.52713e-04       1.52049e+02
 14.300      2.09356e+02       2.34360e+01       6.50881e+00       2.48069e-04       1.49053e+02
 14.400      2.09092e+02       2.31354e+01       6.01281e+00       2.43560e-04       1.46159e+02
 14.500      2.08848e+02       2.27937e+01       5.58432e+00       2.39178e-04       1.43362e+02
 14.600      2.08622e+02       2.24138e+01       5.21934e+00       2.34919e-04       1.40657e+02
 14.700      2.08415e+02       2.19984e+01       4.91386e+00       2.30777e-04       1.38039e+02
 14.800      2.08225e+02       2.15504e+01       4.66387e+00       2.26745e-04       1.35505e+02
 14.900      2.08054e+02       2.10727e+01       4.46538e+00       2.22819e-04       1.33048e+02
 15.000      2.07899e+02       2.05679e+01       4.31438e+00       2.18994e-04       1.30667e+02
 15.100      2.07760e+02       2.00391e+01       4.20685e+00       2.15264e-04       1.28356e+02
 15.200      2.07638e+02       1.94889e+01       4.13880e+00       2.11626e-04       1.26112e+02
 15.300      2.07531e+02       1.89203e+01       4.10622e+00       2.08075e-04       1.23932e+02
 15.400      2.07439e+02       1.83360e+01       4.10511e+00       2.04607e-04       1.21812e+02
 15.500      2.07361e+02       1.77388e+01       4.13146e+00       2.01217e-04       1.19750e+02
 15.600      2.07297e+02       1.71317e+01       4.18126e+00       1.97903e-04       1.17741e+02
 15.700      2.07247e+02       1.65174e+01       4.25052e+00       1.94660e-04       1.15784e+02
 15.800      2.07210e+02       1.58987e+01       4.33522e+00       1.91486e-04       1.13875e+02
 15.900      2.07185e+02       1.52784e+01       4.43136e+00       1.88376e-04       1.12012e+02
 16.000      2.07172e+02       1.46595e+01       4.53493e+00       1.85329e-04       1.10193e+02
 16.100      2.07170e+02       1.40447e+01       4.64194e+00       1.82340e-04       1.08415e+02
 16.200      2.07179e+02       1.34368e+01       4.74837e+00       1.79407e-04       1.06676e+02
 16.300      2.07199e+02       1.28387e+01       4.85022e+00       1.76528e-04       1.04974e+02
 16.400      2.07229e+02       1.22531e+01       4.94348e+00       1.73700e-04       1.03307e+02
 16.500      2.07268e+02       1.16830e+01       5.02416e+00       1.70919e-04       1.01673e+02
 16.600      2.07316e+02       1.11311e+01       5.08824e+00       1.68185e-04       1.00070e+02
 16.700      2.07372e+02       1.05997e+01       5.13242e+00       1.65495e-04       9.84958e+01
 16.800      2.07437e+02       1.00887e+01       5.15658e+00       1.62847e-04       9.69503e+01
 16.900      2.07510e+02       9.59697e+00       5.16152e+00       1.60240e-04       9.54320e+01
 17.000      2.07592e+02       9.12377e+00       5.14802e+00       1.57673e-04       9.39400e+01
 17.100      2.07682e+02       8.66813e+00       5.11689e+00       1.55145e-04       9.24735e+01
 17.200      2.07780e+02       8.22914e+00       5.06892e+00       1.52653e-04       9.10314e+01
 17.300      2.07887e+02       7.80589e+00       5.00490e+00       1.50198e-04       8.96131e+01
 17.400      2.08002e+02       7.39744e+00       4.92562e+00       1.47777e-04       8.82176e+01
 17.500      2.08125e+02       7.00290e+00       4.83188e+00       1.45390e-04       8.68443e+01
 17.600      2.08256e+02       6.62134e+00       4.72447e+00       1.43036e-04       8.54922e+01
 17.700      2.08396e+02       6.25185e+00       4.60418e+00       1.40714e-04       8.41609e+01
 17.800      2.08544e+02       5.89352e+00       4.47182e+00       1.38423e-04       8.28495e+01
 17.900      2.08701e+02       5.54542e+00       4.32816e+00       1.36163e-04       8.15574e+01
 18.000      2.08865e+02       5.20664e+00       4.17401e+00       1.33931e-04       8.02840e+01
 18.100      2.09038e+02       4.87628e+00       4.01016e+00       1.31728e-04       7.90286e+01
 18.200      2.09219e+02       4.55340e+00       3.83741e+00       1.29552e-04       7.77908e+01
 18.300      2.09409e+02       4.23710e+00       3.65654e+00       1.27403e-04       7.65699e+01
 18.400      2.09606e+02       3.92646e+00       3.46835e+00       1.25281e-04       7.53653e+01
 18.500      2.09812e+02       3.62057e+00       3.27363e+00       1.23184e-04       7.41767e+01
 18.600      2.10026e+02       3.31850e+00       3.07318e+00       1.21112e-04       7.30035e+01
 18.700      2.10248e+02       3.01935e+00       2.86779e+00       1.19065e-04       7.18452e+01
 18.800      2.10479e+02       2.72221e+00       2.65826e+00       1.17041e-04       7.07014e+01
 18.900      2.10717e+02       2.42615e+00       2.44537e+00       1.15041e-04       6.95717e+01
 19.000      2.10963e+02       2.13088e+00       2.23001e+00       1.13064e-04       6.84560e+01
 19.100      2.11217e+02       1.83688e+00       2.01314e+00       1.11111e-04       6.73546e+01
 19.200      2.11476e+02       1.54472e+00       1.79576e+00       1.09184e-04       6.62678e+01
 19.300      2.11740e+02       1.25493e+00       1.57884e+00       1.07284e-04       6.51958e+01
 19.400      2.12008e+02       9.68075e-01       1.36337e+00       1.05411e-04       6.41390e+01
 19.500      2.12280e+02       6.84697e-01       1.15033e+00       1.03567e-04       6.30976e+01
 19.600      2.12554e+02       4.05351e-01       9.40712e-01       1.01752e-04       6.20717e+01
 19.700      2.12829e+02       1.30588e-01       7.35492e-01       9.99667e-05       6.10615e+01
 19.800      2.13104e+02      -1.39037e-01       5.35661e-01       9.82118e-05       6.00673e+01
 19.900      2.13380e+02      -4.02981e-01       3.42195e-01       9.64878e-05       5.90891e+01
 20.000      2.13653e+02      -6.60690e-01       1.56080e-01       9.47952e-05       5.81270e+01
 20.100      2.13925e+02      -9.11613e-01      -2.16976e-02       9.31343e-05       5.71811e+01
 20.200      2.14193e+02      -1.15520e+00      -1.90156e-01       9.15056e-05       5.62516e+01
 20.300      2.14457e+02      -1.39089e+00      -3.48307e-01       8.99093e-05       5.53384e+01
