# Data Source: NASA MERRA (version 2)
# Model Time = 2011-07-09 18:00:00
# Location = [  39.1026,  -84.5123 ]
# Fields = [ Z(km), T(K), U(m/s), V(m/s), R(g/cm3), P(mbar) ]
# Ground Height = 0.165
  0.000      3.02315e+02      -1.09458e+00       6.58771e-01       1.16979e-03       1.01496e+03
  0.100      3.01511e+02      -1.19456e+00       6.82723e-01       1.15962e-03       1.00346e+03
  0.200      3.00738e+02      -1.27863e+00       6.95293e-01       1.14942e-03       9.92084e+02
  0.300      2.99895e+02      -1.39932e+00       7.34049e-01       1.13959e-03       9.80844e+02
  0.400      2.98889e+02      -1.60688e+00       8.34654e-01       1.13050e-03       9.69751e+02
  0.500      2.97746e+02      -1.89183e+00       9.83299e-01       1.12201e-03       9.58790e+02
  0.600      2.96624e+02      -2.18102e+00       1.11348e+00       1.11348e-03       9.47920e+02
  0.700      2.95619e+02      -2.42524e+00       1.18492e+00       1.10454e-03       9.37120e+02
  0.800      2.94673e+02      -2.63698e+00       1.22318e+00       1.09541e-03       9.26399e+02
  0.900      2.93721e+02      -2.83552e+00       1.26058e+00       1.08635e-03       9.15768e+02
  1.000      2.92780e+02      -3.02962e+00       1.31548e+00       1.07730e-03       9.05231e+02
  1.100      2.91898e+02      -3.22382e+00       1.40006e+00       1.06808e-03       8.94782e+02
  1.200      2.91103e+02      -3.41518e+00       1.50356e+00       1.05860e-03       8.84422e+02
  1.300      2.90399e+02      -3.59336e+00       1.59228e+00       1.04884e-03       8.74154e+02
  1.400      2.89789e+02      -3.74765e+00       1.63152e+00       1.03882e-03       8.63981e+02
  1.500      2.89279e+02      -3.86738e+00       1.58659e+00       1.02852e-03       8.53906e+02
  1.600      2.88870e+02      -3.94278e+00       1.42529e+00       1.01794e-03       8.43931e+02
  1.700      2.88541e+02      -3.97760e+00       1.15136e+00       1.00718e-03       8.34056e+02
  1.800      2.88254e+02      -3.98569e+00       7.95527e-01       9.96366e-04       8.24281e+02
  1.900      2.87968e+02      -3.98114e+00       3.89156e-01       9.85643e-04       8.14603e+02
  2.000      2.87646e+02      -3.97806e+00      -3.63776e-02       9.75140e-04       8.05021e+02
  2.100      2.87249e+02      -3.99027e+00      -4.50557e-01       9.64980e-04       7.95534e+02
  2.200      2.86778e+02      -4.02417e+00      -8.45443e-01       9.55155e-04       7.86142e+02
  2.300      2.86272e+02      -4.07816e+00      -1.23738e+00       9.45526e-04       7.76845e+02
  2.400      2.85775e+02      -4.15026e+00      -1.64391e+00       9.35952e-04       7.67645e+02
  2.500      2.85330e+02      -4.23850e+00      -2.08258e+00       9.26298e-04       7.58544e+02
  2.600      2.84980e+02      -4.34088e+00      -2.57094e+00       9.16431e-04       7.49541e+02
  2.700      2.84749e+02      -4.45281e+00      -3.11796e+00       9.06279e-04       7.40638e+02
  2.800      2.84605e+02      -4.56067e+00      -3.70324e+00       8.95957e-04       7.31834e+02
  2.900      2.84504e+02      -4.64892e+00      -4.30006e+00       8.85615e-04       7.23127e+02
  3.000      2.84398e+02      -4.70204e+00      -4.88172e+00       8.75394e-04       7.14516e+02
  3.100      2.84243e+02      -4.70447e+00      -5.42150e+00       8.65432e-04       7.06000e+02
  3.200      2.83994e+02      -4.64079e+00      -5.89279e+00       8.55859e-04       6.97578e+02
  3.300      2.83628e+02      -4.50304e+00      -6.27594e+00       8.46729e-04       6.89249e+02
  3.400      2.83166e+02      -4.29645e+00      -6.56355e+00       8.37973e-04       6.81008e+02
  3.500      2.82628e+02      -4.02756e+00      -6.74944e+00       8.29512e-04       6.72853e+02
  3.600      2.82040e+02      -3.70290e+00      -6.82744e+00       8.21271e-04       6.64782e+02
  3.700      2.81423e+02      -3.32900e+00      -6.79135e+00       8.13178e-04       6.56791e+02
  3.800      2.80801e+02      -2.91242e+00      -6.63503e+00       8.05161e-04       6.48878e+02
  3.900      2.80190e+02      -2.46109e+00      -6.35892e+00       7.97171e-04       6.41041e+02
  4.000      2.79589e+02      -1.98664e+00      -5.98088e+00       7.89210e-04       6.33279e+02
  4.100      2.78996e+02      -1.50130e+00      -5.52158e+00       7.81289e-04       6.25594e+02
  4.200      2.78408e+02      -1.01730e+00      -5.00169e+00       7.73418e-04       6.17985e+02
  4.300      2.77820e+02      -5.46873e-01      -4.44189e+00       7.65606e-04       6.10452e+02
  4.400      2.77231e+02      -1.02240e-01      -3.86285e+00       7.57863e-04       6.02995e+02
  4.500      2.76636e+02       3.05045e-01      -3.28507e+00       7.50197e-04       5.95615e+02
  4.600      2.76036e+02       6.73765e-01      -2.72644e+00       7.42607e-04       5.88311e+02
  4.700      2.75434e+02       1.01075e+00      -2.20281e+00       7.35086e-04       5.81082e+02
  4.800      2.74832e+02       1.32306e+00      -1.72996e+00       7.27625e-04       5.73927e+02
  4.900      2.74232e+02       1.61772e+00      -1.32370e+00       7.20218e-04       5.66845e+02
  5.000      2.73638e+02       1.90179e+00      -9.99803e-01       7.12858e-04       5.59836e+02
  5.100      2.73051e+02       2.18231e+00      -7.74075e-01       7.05537e-04       5.52898e+02
  5.200      2.72474e+02       2.46592e+00      -6.61209e-01       6.98249e-04       5.46031e+02
  5.300      2.71907e+02       2.75259e+00      -6.58080e-01       6.90995e-04       5.39234e+02
  5.400      2.71349e+02       3.03689e+00      -7.47072e-01       6.83779e-04       5.32508e+02
  5.500      2.70798e+02       3.31322e+00      -9.10151e-01       6.76607e-04       5.25852e+02
  5.600      2.70251e+02       3.57598e+00      -1.12928e+00       6.69484e-04       5.19266e+02
  5.700      2.69709e+02       3.81957e+00      -1.38643e+00       6.62415e-04       5.12752e+02
  5.800      2.69168e+02       4.03840e+00      -1.66355e+00       6.55405e-04       5.06308e+02
  5.900      2.68627e+02       4.22688e+00      -1.94262e+00       6.48458e-04       4.99934e+02
  6.000      2.68084e+02       4.38148e+00      -2.20879e+00       6.41579e-04       4.93631e+02
  6.100      2.67536e+02       4.50681e+00      -2.45954e+00       6.34771e-04       4.87396e+02
  6.200      2.66981e+02       4.60942e+00      -2.69535e+00       6.28041e-04       4.81227e+02
  6.300      2.66415e+02       4.69585e+00      -2.91669e+00       6.21392e-04       4.75123e+02
  6.400      2.65835e+02       4.77266e+00      -3.12406e+00       6.14829e-04       4.69081e+02
  6.500      2.65238e+02       4.84639e+00      -3.31793e+00       6.08355e-04       4.63100e+02
  6.600      2.64622e+02       4.92361e+00      -3.49877e+00       6.01974e-04       4.57178e+02
  6.700      2.63982e+02       5.01086e+00      -3.66706e+00       5.95691e-04       4.51313e+02
  6.800      2.63317e+02       5.11405e+00      -3.82337e+00       5.89509e-04       4.45504e+02
  6.900      2.62628e+02       5.23393e+00      -3.96878e+00       5.83423e-04       4.39751e+02
  7.000      2.61920e+02       5.36877e+00      -4.10469e+00       5.77429e-04       4.34058e+02
  7.100      2.61195e+02       5.51685e+00      -4.23248e+00       5.71519e-04       4.28427e+02
  7.200      2.60457e+02       5.67640e+00      -4.35352e+00       5.65688e-04       4.22858e+02
  7.300      2.59711e+02       5.84570e+00      -4.46920e+00       5.59929e-04       4.17354e+02
  7.400      2.58959e+02       6.02299e+00      -4.58089e+00       5.54239e-04       4.11917e+02
  7.500      2.58206e+02       6.20655e+00      -4.68998e+00       5.48609e-04       4.06548e+02
  7.600      2.57456e+02       6.39462e+00      -4.79786e+00       5.43037e-04       4.01248e+02
  7.700      2.56711e+02       6.58497e+00      -4.90549e+00       5.37514e-04       3.96019e+02
  7.800      2.55973e+02       6.77127e+00      -5.01054e+00       5.32033e-04       3.90854e+02
  7.900      2.55241e+02       6.94514e+00      -5.10902e+00       5.26584e-04       3.85745e+02
  8.000      2.54515e+02       7.09818e+00      -5.19691e+00       5.21157e-04       3.80683e+02
  8.100      2.53795e+02       7.22201e+00      -5.27020e+00       5.15742e-04       3.75662e+02
  8.200      2.53080e+02       7.30822e+00      -5.32489e+00       5.10330e-04       3.70673e+02
  8.300      2.52369e+02       7.34843e+00      -5.35696e+00       5.04914e-04       3.65709e+02
  8.400      2.51663e+02       7.33425e+00      -5.36241e+00       4.99484e-04       3.60765e+02
  8.500      2.50961e+02       7.25728e+00      -5.33722e+00       4.94034e-04       3.55833e+02
  8.600      2.50263e+02       7.10912e+00      -5.27739e+00       4.88556e-04       3.50908e+02
  8.700      2.49568e+02       6.88344e+00      -5.18024e+00       4.83046e-04       3.45987e+02
  8.800      2.48874e+02       6.58834e+00      -5.05245e+00       4.77531e-04       3.41086e+02
  8.900      2.48180e+02       6.23811e+00      -4.90475e+00       4.72045e-04       3.36227e+02
  9.000      2.47484e+02       5.84706e+00      -4.74783e+00       4.66623e-04       3.31433e+02
  9.100      2.46784e+02       5.42950e+00      -4.59242e+00       4.61297e-04       3.26724e+02
  9.200      2.46079e+02       4.99976e+00      -4.44925e+00       4.56099e-04       3.22118e+02
  9.300      2.45365e+02       4.57214e+00      -4.32903e+00       4.51057e-04       3.17633e+02
  9.400      2.44642e+02       4.16096e+00      -4.24248e+00       4.46201e-04       3.13288e+02
  9.500      2.43907e+02       3.78053e+00      -4.20032e+00       4.41557e-04       3.09096e+02
  9.600      2.43160e+02       3.44517e+00      -4.21328e+00       4.37152e-04       3.05075e+02
  9.700      2.42397e+02       3.16920e+00      -4.29207e+00       4.33011e-04       3.01237e+02
  9.800      2.41617e+02       2.96591e+00      -4.44646e+00       4.29156e-04       2.97594e+02
  9.900      2.40820e+02       2.83700e+00      -4.67513e+00       4.25576e-04       2.94139e+02
 10.000      2.40010e+02       2.77661e+00      -4.96962e+00       4.22238e-04       2.90849e+02
 10.100      2.39187e+02       2.77879e+00      -5.32134e+00       4.19112e-04       2.87706e+02
 10.200      2.38353e+02       2.83755e+00      -5.72169e+00       4.16168e-04       2.84690e+02
 10.300      2.37512e+02       2.94696e+00      -6.16209e+00       4.13378e-04       2.81783e+02
 10.400      2.36664e+02       3.10102e+00      -6.63395e+00       4.10712e-04       2.78966e+02
 10.500      2.35811e+02       3.29378e+00      -7.12869e+00       4.08145e-04       2.76224e+02
 10.600      2.34956e+02       3.51928e+00      -7.63772e+00       4.05649e-04       2.73539e+02
 10.700      2.34101e+02       3.77155e+00      -8.15243e+00       4.03199e-04       2.70897e+02
 10.800      2.33247e+02       4.04462e+00      -8.66426e+00       4.00768e-04       2.68282e+02
 10.900      2.32397e+02       4.33252e+00      -9.16461e+00       3.98333e-04       2.65680e+02
 11.000      2.31553e+02       4.62930e+00      -9.64489e+00       3.95868e-04       2.63077e+02
 11.100      2.30716e+02       4.92898e+00      -1.00965e+01       3.93351e-04       2.60459e+02
 11.200      2.29889e+02       5.22560e+00      -1.05109e+01       3.90757e-04       2.57814e+02
 11.300      2.29073e+02       5.51320e+00      -1.08794e+01       3.88065e-04       2.55129e+02
 11.400      2.28271e+02       5.78581e+00      -1.11936e+01       3.85253e-04       2.52393e+02
 11.500      2.27484e+02       6.03746e+00      -1.14447e+01       3.82299e-04       2.49595e+02
 11.600      2.26714e+02       6.26375e+00      -1.16279e+01       3.79190e-04       2.46727e+02
 11.700      2.25959e+02       6.46432e+00      -1.17481e+01       3.75926e-04       2.43789e+02
 11.800      2.25219e+02       6.63950e+00      -1.18117e+01       3.72513e-04       2.40784e+02
 11.900      2.24491e+02       6.78960e+00      -1.18250e+01       3.68955e-04       2.37713e+02
 12.000      2.23773e+02       6.91493e+00      -1.17945e+01       3.65256e-04       2.34578e+02
 12.100      2.23066e+02       7.01581e+00      -1.17266e+01       3.61423e-04       2.31382e+02
 12.200      2.22365e+02       7.09254e+00      -1.16277e+01       3.57460e-04       2.28127e+02
 12.300      2.21672e+02       7.14544e+00      -1.15042e+01       3.53373e-04       2.24815e+02
 12.400      2.20983e+02       7.17483e+00      -1.13625e+01       3.49167e-04       2.21448e+02
 12.500      2.20297e+02       7.18101e+00      -1.12090e+01       3.44847e-04       2.18030e+02
 12.600      2.19612e+02       7.16431e+00      -1.10501e+01       3.40420e-04       2.14562e+02
 12.700      2.18928e+02       7.12503e+00      -1.08922e+01       3.35891e-04       2.11049e+02
 12.800      2.18243e+02       7.06349e+00      -1.07418e+01       3.31267e-04       2.07491e+02
 12.900      2.17554e+02       6.98000e+00      -1.06051e+01       3.26553e-04       2.03893e+02
 13.000      2.16861e+02       6.87488e+00      -1.04888e+01       3.21755e-04       2.00257e+02
 13.100      2.16163e+02       6.74881e+00      -1.03977e+01       3.16881e-04       1.96589e+02
 13.200      2.15461e+02       6.60437e+00      -1.03308e+01       3.11947e-04       1.92900e+02
 13.300      2.14760e+02       6.44469e+00      -1.02846e+01       3.06970e-04       1.89204e+02
 13.400      2.14062e+02       6.27293e+00      -1.02559e+01       3.01967e-04       1.85516e+02
 13.500      2.13370e+02       6.09221e+00      -1.02414e+01       2.96954e-04       1.81846e+02
 13.600      2.12688e+02       5.90569e+00      -1.02378e+01       2.91945e-04       1.78208e+02
 13.700      2.12019e+02       5.71652e+00      -1.02420e+01       2.86956e-04       1.74611e+02
 13.800      2.11366e+02       5.52783e+00      -1.02505e+01       2.81997e-04       1.71065e+02
 13.900      2.10733e+02       5.34276e+00      -1.02601e+01       2.77083e-04       1.67581e+02
 14.000      2.10122e+02       5.16447e+00      -1.02675e+01       2.72223e-04       1.64164e+02
 14.100      2.09537e+02       4.99609e+00      -1.02696e+01       2.67429e-04       1.60825e+02
 14.200      2.08981e+02       4.84078e+00      -1.02629e+01       2.62711e-04       1.57568e+02
 14.300      2.08458e+02       4.70166e+00      -1.02442e+01       2.58077e-04       1.54401e+02
 14.400      2.07970e+02       4.58189e+00      -1.02102e+01       2.53535e-04       1.51328e+02
 14.500      2.07521e+02       4.48445e+00      -1.01578e+01       2.49093e-04       1.48356e+02
 14.600      2.07110e+02       4.40947e+00      -1.00861e+01       2.44753e-04       1.45483e+02
 14.700      2.06738e+02       4.35465e+00      -9.99605e+00       2.40509e-04       1.42703e+02
 14.800      2.06401e+02       4.31758e+00      -9.88886e+00       2.36361e-04       1.40013e+02
 14.900      2.06100e+02       4.29588e+00      -9.76561e+00       2.32303e-04       1.37409e+02
 15.000      2.05831e+02       4.28714e+00      -9.62740e+00       2.28333e-04       1.34884e+02
 15.100      2.05593e+02       4.28897e+00      -9.47532e+00       2.24448e-04       1.32436e+02
 15.200      2.05386e+02       4.29897e+00      -9.31049e+00       2.20645e-04       1.30061e+02
 15.300      2.05206e+02       4.31476e+00      -9.13402e+00       2.16922e-04       1.27754e+02
 15.400      2.05054e+02       4.33393e+00      -8.94700e+00       2.13275e-04       1.25513e+02
 15.500      2.04926e+02       4.35409e+00      -8.75054e+00       2.09703e-04       1.23334e+02
 15.600      2.04822e+02       4.37285e+00      -8.54575e+00       2.06203e-04       1.21214e+02
 15.700      2.04740e+02       4.38781e+00      -8.33374e+00       2.02773e-04       1.19150e+02
 15.800      2.04678e+02       4.39657e+00      -8.11560e+00       1.99411e-04       1.17139e+02
 15.900      2.04635e+02       4.39674e+00      -7.89245e+00       1.96114e-04       1.15178e+02
 16.000      2.04609e+02       4.38593e+00      -7.66539e+00       1.92881e-04       1.13265e+02
 16.100      2.04598e+02       4.36174e+00      -7.43552e+00       1.89709e-04       1.11397e+02
 16.200      2.04602e+02       4.32177e+00      -7.20395e+00       1.86597e-04       1.09571e+02
 16.300      2.04618e+02       4.26363e+00      -6.97180e+00       1.83544e-04       1.07787e+02
 16.400      2.04645e+02       4.18493e+00      -6.74015e+00       1.80546e-04       1.06041e+02
 16.500      2.04681e+02       4.08326e+00      -6.51012e+00       1.77604e-04       1.04331e+02
 16.600      2.04725e+02       3.95624e+00      -6.28282e+00       1.74714e-04       1.02655e+02
 16.700      2.04775e+02       3.80147e+00      -6.05934e+00       1.71876e-04       1.01013e+02
 16.800      2.04830e+02       3.61660e+00      -5.84078e+00       1.69089e-04       9.94007e+01
 16.900      2.04888e+02       3.40116e+00      -5.62760e+00       1.66349e-04       9.78182e+01
 17.000      2.04951e+02       3.15737e+00      -5.41934e+00       1.63656e-04       9.62640e+01
 17.100      2.05018e+02       2.88761e+00      -5.21551e+00       1.61007e-04       9.47371e+01
 17.200      2.05091e+02       2.59426e+00      -5.01560e+00       1.58401e-04       9.32367e+01
 17.300      2.05168e+02       2.27973e+00      -4.81911e+00       1.55837e-04       9.17617e+01
 17.400      2.05252e+02       1.94640e+00      -4.62552e+00       1.53311e-04       9.03114e+01
 17.500      2.05343e+02       1.59666e+00      -4.43435e+00       1.50823e-04       8.88848e+01
 17.600      2.05440e+02       1.23290e+00      -4.24507e+00       1.48371e-04       8.74813e+01
 17.700      2.05544e+02       8.57514e-01      -4.05718e+00       1.45954e-04       8.60999e+01
 17.800      2.05656e+02       4.72897e-01      -3.87018e+00       1.43570e-04       8.47400e+01
 17.900      2.05777e+02       8.14273e-02      -3.68357e+00       1.41219e-04       8.34008e+01
 18.000      2.05906e+02      -3.14499e-01      -3.49683e+00       1.38898e-04       8.20817e+01
 18.100      2.06044e+02      -7.12490e-01      -3.30946e+00       1.36607e-04       8.07820e+01
 18.200      2.06192e+02      -1.11016e+00      -3.12097e+00       1.34344e-04       7.95011e+01
 18.300      2.06350e+02      -1.50510e+00      -2.93083e+00       1.32110e-04       7.82384e+01
 18.400      2.06518e+02      -1.89494e+00      -2.73855e+00       1.29901e-04       7.69933e+01
 18.500      2.06697e+02      -2.27729e+00      -2.54362e+00       1.27718e-04       7.57653e+01
 18.600      2.06888e+02      -2.64975e+00      -2.34554e+00       1.25560e-04       7.45538e+01
 18.700      2.07090e+02      -3.00993e+00      -2.14379e+00       1.23426e-04       7.33583e+01
 18.800      2.07305e+02      -3.35544e+00      -1.93788e+00       1.21315e-04       7.21784e+01
 18.900      2.07532e+02      -3.68389e+00      -1.72730e+00       1.19227e-04       7.10136e+01
 19.000      2.07773e+02      -3.99290e+00      -1.51155e+00       1.17160e-04       6.98634e+01
 19.100      2.08026e+02      -4.28082e+00      -1.29054e+00       1.15115e-04       6.87276e+01
 19.200      2.08292e+02      -4.54818e+00      -1.06542e+00       1.13092e-04       6.76066e+01
 19.300      2.08569e+02      -4.79583e+00      -8.37527e-01       1.11095e-04       6.65006e+01
 19.400      2.08856e+02      -5.02468e+00      -6.08209e-01       1.09123e-04       6.54099e+01
 19.500      2.09152e+02      -5.23558e+00      -3.78811e-01       1.07177e-04       6.43349e+01
 19.600      2.09455e+02      -5.42942e+00      -1.50679e-01       1.05261e-04       6.32758e+01
 19.700      2.09764e+02      -5.60707e+00       7.48430e-02       1.03373e-04       6.22328e+01
 19.800      2.10078e+02      -5.76941e+00       2.96405e-01       1.01515e-04       6.12061e+01
 19.900      2.10396e+02      -5.91733e+00       5.12670e-01       9.96890e-05       6.01959e+01
 20.000      2.10717e+02      -6.05169e+00       7.22289e-01       9.78944e-05       5.92024e+01
 20.100      2.11039e+02      -6.17337e+00       9.23916e-01       9.61323e-05       5.82256e+01
 20.200      2.11362e+02      -6.28326e+00       1.11621e+00       9.44032e-05       5.72658e+01
 20.300      2.11683e+02      -6.38222e+00       1.29781e+00       9.27078e-05       5.63229e+01
