# Data Source: NASA GEOS5 Near-Real-Time
# Model Time = 2010-01-10 18:00:00
# Location = [  39.7393, -104.9900 ]
# Fields = [ Z(km), T(K), U(m/s), V(m/s), R(g/cm3), P(mbar) ]
# Ground Height = 1.589
  0.000      2.87093e+02      -3.93837e-01       3.00802e+00       1.24650e-03       1.02707e+03
  0.100      2.86438e+02      -3.85015e-01       3.00531e+00       1.23449e-03       1.01485e+03
  0.200      2.85788e+02      -3.67623e-01       3.03074e+00       1.22260e-03       1.00279e+03
  0.300      2.85139e+02      -3.48608e-01       3.06151e+00       1.21084e-03       9.90887e+02
  0.400      2.84487e+02      -3.34919e-01       3.07478e+00       1.19919e-03       9.79109e+02
  0.500      2.83828e+02      -3.33857e-01       3.05086e+00       1.18764e-03       9.67441e+02
  0.600      2.83170e+02      -3.57085e-01       3.00876e+00       1.17618e-03       9.55880e+02
  0.700      2.82522e+02      -4.18053e-01       2.99230e+00       1.16476e-03       9.44435e+02
  0.800      2.81887e+02      -5.01774e-01       3.01209e+00       1.15338e-03       9.33105e+02
  0.900      2.81260e+02      -5.64213e-01       3.04399e+00       1.14205e-03       9.21882e+02
  1.000      2.80645e+02      -5.96025e-01       3.07225e+00       1.13075e-03       9.10764e+02
  1.100      2.80067e+02      -6.52586e-01       3.09907e+00       1.11938e-03       8.99754e+02
  1.200      2.79533e+02      -7.64423e-01       3.13537e+00       1.10794e-03       8.88857e+02
  1.300      2.78968e+02      -8.43917e-01       3.21774e+00       1.09672e-03       8.78074e+02
  1.400      2.78296e+02      -7.87936e-01       3.37642e+00       1.08601e-03       8.67405e+02
  1.500      2.77583e+02      -6.12742e-01       3.52023e+00       1.07554e-03       8.56845e+02
  1.600      2.76974e+02      -4.02654e-01       3.49080e+00       1.06475e-03       8.46387e+02
  1.700      2.76543e+02      -2.45604e-01       3.23943e+00       1.05336e-03       8.36030e+02
  1.800      2.76249e+02      -2.33747e-01       2.88266e+00       1.04156e-03       8.25783e+02
  1.900      2.76041e+02      -4.28856e-01       2.53334e+00       1.02956e-03       8.15654e+02
  2.000      2.75850e+02      -7.37789e-01       2.21719e+00       1.01762e-03       8.05642e+02
  2.100      2.75604e+02      -1.02075e+00       1.93271e+00       1.00602e-03       7.95745e+02
  2.200      2.75265e+02      -1.20462e+00       1.68310e+00       9.94870e-04       7.85957e+02
  2.300      2.74834e+02      -1.29612e+00       1.47715e+00       9.84156e-04       7.76276e+02
  2.400      2.74320e+02      -1.30464e+00       1.32181e+00       9.73833e-04       7.66698e+02
  2.500      2.73754e+02      -1.22759e+00       1.21090e+00       9.63784e-04       7.57220e+02
  2.600      2.73173e+02      -1.05801e+00       1.13333e+00       9.53867e-04       7.47839e+02
  2.700      2.72606e+02      -8.04326e-01       1.07282e+00       9.43985e-04       7.38554e+02
  2.800      2.72057e+02      -5.06404e-01       1.00245e+00       9.34122e-04       7.29366e+02
  2.900      2.71529e+02      -2.07525e-01       8.94689e-01       9.24274e-04       7.20277e+02
  3.000      2.71024e+02       5.79333e-02       7.36510e-01       9.14441e-04       7.11286e+02
  3.100      2.70538e+02       2.64024e-01       5.28590e-01       9.04628e-04       7.02392e+02
  3.200      2.70067e+02       3.89497e-01       2.73209e-01       8.94852e-04       6.93593e+02
  3.300      2.69584e+02       4.53836e-01      -1.74264e-02       8.85202e-04       6.84885e+02
  3.400      2.69046e+02       4.98734e-01      -3.25707e-01       8.75811e-04       6.76269e+02
  3.500      2.68423e+02       5.59019e-01      -6.37491e-01       8.66778e-04       6.67743e+02
  3.600      2.67734e+02       6.25056e-01      -9.60749e-01       8.58027e-04       6.59305e+02
  3.700      2.67021e+02       6.70003e-01      -1.31201e+00       8.49421e-04       6.50953e+02
  3.800      2.66320e+02       6.70064e-01      -1.70476e+00       8.40839e-04       6.42686e+02
  3.900      2.65644e+02       6.18875e-01      -2.13507e+00       8.32248e-04       6.34504e+02
  4.000      2.64994e+02       5.16195e-01      -2.59293e+00       8.23640e-04       6.26404e+02
  4.100      2.64371e+02       3.63777e-01      -3.06830e+00       8.15013e-04       6.18387e+02
  4.200      2.63772e+02       1.76899e-01      -3.55098e+00       8.06386e-04       6.10455e+02
  4.300      2.63189e+02      -2.35232e-02      -4.03072e+00       7.97782e-04       6.02607e+02
  4.400      2.62616e+02      -2.16449e-01      -4.49676e+00       7.89227e-04       5.94847e+02
  4.500      2.62050e+02      -3.79622e-01      -4.93240e+00       7.80730e-04       5.87173e+02
  4.600      2.61488e+02      -4.89996e-01      -5.31713e+00       7.72293e-04       5.79583e+02
  4.700      2.60929e+02      -5.24758e-01      -5.63061e+00       7.63919e-04       5.72073e+02
  4.800      2.60371e+02      -4.71104e-01      -5.86434e+00       7.55614e-04       5.64643e+02
  4.900      2.59808e+02      -3.29548e-01      -6.02547e+00       7.47391e-04       5.57292e+02
  5.000      2.59238e+02      -1.01528e-01      -6.12226e+00       7.39263e-04       5.50021e+02
  5.100      2.58656e+02       2.08775e-01      -6.16330e+00       7.31238e-04       5.42830e+02
  5.200      2.58065e+02       5.86093e-01      -6.15870e+00       7.23309e-04       5.35717e+02
  5.300      2.57468e+02       1.01237e+00      -6.11888e+00       7.15466e-04       5.28682e+02
  5.400      2.56868e+02       1.46949e+00      -6.05445e+00       7.07700e-04       5.21725e+02
  5.500      2.56266e+02       1.93845e+00      -5.97952e+00       7.00007e-04       5.14844e+02
  5.600      2.55659e+02       2.39921e+00      -5.91205e+00       6.92394e-04       5.08039e+02
  5.700      2.55045e+02       2.83170e+00      -5.87017e+00       6.84866e-04       5.01306e+02
  5.800      2.54420e+02       3.21736e+00      -5.87128e+00       6.77427e-04       4.94646e+02
  5.900      2.53783e+02       3.54866e+00      -5.92742e+00       6.70081e-04       4.88058e+02
  6.000      2.53132e+02       3.82297e+00      -6.04826e+00       6.62833e-04       4.81541e+02
  6.100      2.52466e+02       4.03768e+00      -6.24345e+00       6.55684e-04       4.75094e+02
  6.200      2.51784e+02       4.19432e+00      -6.51944e+00       6.48636e-04       4.68718e+02
  6.300      2.51087e+02       4.31174e+00      -6.86917e+00       6.41683e-04       4.62410e+02
  6.400      2.50378e+02       4.41331e+00      -7.28208e+00       6.34817e-04       4.56170e+02
  6.500      2.49658e+02       4.52241e+00      -7.74760e+00       6.28032e-04       4.49995e+02
  6.600      2.48928e+02       4.65937e+00      -8.25048e+00       6.21321e-04       4.43886e+02
  6.700      2.48186e+02       4.83236e+00      -8.75684e+00       6.14690e-04       4.37841e+02
  6.800      2.47431e+02       5.04652e+00      -9.22813e+00       6.08144e-04       4.31860e+02
  6.900      2.46660e+02       5.30699e+00      -9.62578e+00       6.01689e-04       4.25943e+02
  7.000      2.45870e+02       5.61755e+00      -9.91590e+00       5.95329e-04       4.20091e+02
  7.100      2.45062e+02       5.97314e+00      -1.00949e+01       5.89059e-04       4.14302e+02
  7.200      2.44240e+02       6.36518e+00      -1.01712e+01       5.82872e-04       4.08575e+02
  7.300      2.43405e+02       6.78505e+00      -1.01535e+01       5.76759e-04       4.02908e+02
  7.400      2.42561e+02       7.22388e+00      -1.00505e+01       5.70712e-04       3.97301e+02
  7.500      2.41710e+02       7.66589e+00      -9.87397e+00       5.64723e-04       3.91752e+02
  7.600      2.40855e+02       8.08814e+00      -9.63948e+00       5.58785e-04       3.86262e+02
  7.700      2.40000e+02       8.46732e+00      -9.36256e+00       5.52889e-04       3.80830e+02
  7.800      2.39148e+02       8.78014e+00      -9.05875e+00       5.47026e-04       3.75454e+02
  7.900      2.38302e+02       9.00921e+00      -8.74249e+00       5.41191e-04       3.70135e+02
  8.000      2.37461e+02       9.16778e+00      -8.42227e+00       5.35387e-04       3.64872e+02
  8.100      2.36623e+02       9.27895e+00      -8.10470e+00       5.29616e-04       3.59666e+02
  8.200      2.35786e+02       9.36581e+00      -7.79639e+00       5.23885e-04       3.54517e+02
  8.300      2.34950e+02       9.45147e+00      -7.50393e+00       5.18197e-04       3.49423e+02
  8.400      2.34112e+02       9.55568e+00      -7.23128e+00       5.12555e-04       3.44386e+02
  8.500      2.33272e+02       9.68864e+00      -6.97491e+00       5.06959e-04       3.39404e+02
  8.600      2.32430e+02       9.85885e+00      -6.72993e+00       5.01408e-04       3.34477e+02
  8.700      2.31587e+02       1.00748e+01      -6.49148e+00       4.95903e-04       3.29604e+02
  8.800      2.30743e+02       1.03451e+01      -6.25467e+00       4.90441e-04       3.24785e+02
  8.900      2.29897e+02       1.06750e+01      -6.01791e+00       4.85022e-04       3.20020e+02
  9.000      2.29052e+02       1.10598e+01      -5.79105e+00       4.79641e-04       3.15307e+02
  9.100      2.28212e+02       1.14919e+01      -5.58646e+00       4.74294e-04       3.10647e+02
  9.200      2.27377e+02       1.19640e+01      -5.41651e+00       4.68974e-04       3.06039e+02
  9.300      2.26551e+02       1.24689e+01      -5.29356e+00       4.63678e-04       3.01484e+02
  9.400      2.25735e+02       1.29986e+01      -5.22871e+00       4.58401e-04       2.96980e+02
  9.500      2.24930e+02       1.35396e+01      -5.21855e+00       4.53146e-04       2.92528e+02
  9.600      2.24132e+02       1.40748e+01      -5.25042e+00       4.47918e-04       2.88127e+02
  9.700      2.23338e+02       1.45868e+01      -5.31154e+00       4.42724e-04       2.83778e+02
  9.800      2.22546e+02       1.50584e+01      -5.38912e+00       4.37569e-04       2.79478e+02
  9.900      2.21752e+02       1.54723e+01      -5.47037e+00       4.32459e-04       2.75230e+02
 10.000      2.20955e+02       1.58154e+01      -5.54469e+00       4.27398e-04       2.71030e+02
 10.100      2.20154e+02       1.60941e+01      -5.61177e+00       4.22384e-04       2.66880e+02
 10.200      2.19353e+02       1.63205e+01      -5.67437e+00       4.17413e-04       2.62779e+02
 10.300      2.18552e+02       1.65067e+01      -5.73521e+00       4.12482e-04       2.58727e+02
 10.400      2.17753e+02       1.66649e+01      -5.79703e+00       4.07587e-04       2.54722e+02
 10.500      2.16958e+02       1.68072e+01      -5.86258e+00       4.02725e-04       2.50764e+02
 10.600      2.16168e+02       1.69449e+01      -5.93417e+00       3.97894e-04       2.46854e+02
 10.700      2.15380e+02       1.70826e+01      -6.01097e+00       3.93099e-04       2.42990e+02
 10.800      2.14588e+02       1.72221e+01      -6.09082e+00       3.88350e-04       2.39173e+02
 10.900      2.13789e+02       1.73652e+01      -6.17150e+00       3.83654e-04       2.35401e+02
 11.000      2.12978e+02       1.75138e+01      -6.25085e+00       3.79021e-04       2.31675e+02
 11.100      2.12148e+02       1.76696e+01      -6.32665e+00       3.74458e-04       2.27995e+02
 11.200      2.11296e+02       1.78345e+01      -6.39673e+00       3.69974e-04       2.24359e+02
 11.300      2.10422e+02       1.80088e+01      -6.45942e+00       3.65564e-04       2.20769e+02
 11.400      2.09542e+02       1.81898e+01      -6.51434e+00       3.61203e-04       2.17222e+02
 11.500      2.08672e+02       1.83743e+01      -6.56129e+00       3.56860e-04       2.13719e+02
 11.600      2.07830e+02       1.85588e+01      -6.60006e+00       3.52506e-04       2.10260e+02
 11.700      2.07032e+02       1.87402e+01      -6.63045e+00       3.48113e-04       2.06842e+02
 11.800      2.06295e+02       1.89152e+01      -6.65226e+00       3.43655e-04       2.03467e+02
 11.900      2.05637e+02       1.90806e+01      -6.66528e+00       3.39105e-04       2.00132e+02
 12.000      2.05072e+02       1.92309e+01      -6.67014e+00       3.34444e-04       1.96839e+02
 12.100      2.04609e+02       1.93511e+01      -6.67115e+00       3.29667e-04       1.93590e+02
 12.200      2.04253e+02       1.94237e+01      -6.67372e+00       3.24777e-04       1.90386e+02
 12.300      2.04009e+02       1.94309e+01      -6.68319e+00       3.19777e-04       1.87231e+02
 12.400      2.03882e+02       1.93552e+01      -6.70497e+00       3.14670e-04       1.84126e+02
 12.500      2.03878e+02       1.91789e+01      -6.74442e+00       3.09459e-04       1.81073e+02
 12.600      2.04001e+02       1.88842e+01      -6.80692e+00       3.04149e-04       1.78075e+02
 12.700      2.04259e+02       1.84537e+01      -6.89784e+00       2.98746e-04       1.75132e+02
 12.800      2.04650e+02       1.78772e+01      -7.02093e+00       2.93261e-04       1.72245e+02
 12.900      2.05155e+02       1.71800e+01      -7.17240e+00       2.87732e-04       1.69415e+02
 13.000      2.05746e+02       1.63974e+01      -7.34634e+00       2.82203e-04       1.66639e+02
 13.100      2.06398e+02       1.55648e+01      -7.53681e+00       2.76715e-04       1.63916e+02
 13.200      2.07082e+02       1.47173e+01      -7.73789e+00       2.71306e-04       1.61244e+02
 13.300      2.07772e+02       1.38903e+01      -7.94366e+00       2.66008e-04       1.58622e+02
 13.400      2.08442e+02       1.31190e+01      -8.14818e+00       2.60853e-04       1.56049e+02
 13.500      2.09064e+02       1.24389e+01      -8.34553e+00       2.55868e-04       1.53524e+02
 13.600      2.09611e+02       1.18851e+01      -8.52979e+00       2.51079e-04       1.51046e+02
 13.700      2.10059e+02       1.14911e+01      -8.69522e+00       2.46508e-04       1.48612e+02
 13.800      2.10402e+02       1.12597e+01      -8.83923e+00       2.42149e-04       1.46222e+02
 13.900      2.10651e+02       1.11686e+01      -8.96187e+00       2.37979e-04       1.43874e+02
 14.000      2.10819e+02       1.11945e+01      -9.06324e+00       2.33975e-04       1.41566e+02
 14.100      2.10918e+02       1.13141e+01      -9.14347e+00       2.30116e-04       1.39297e+02
 14.200      2.10961e+02       1.15043e+01      -9.20265e+00       2.26383e-04       1.37065e+02
 14.300      2.10960e+02       1.17418e+01      -9.24090e+00       2.22756e-04       1.34869e+02
 14.400      2.10927e+02       1.20034e+01      -9.25834e+00       2.19220e-04       1.32707e+02
 14.500      2.10874e+02       1.22658e+01      -9.25507e+00       2.15756e-04       1.30578e+02
 14.600      2.10814e+02       1.25059e+01      -9.23121e+00       2.12351e-04       1.28480e+02
 14.700      2.10759e+02       1.27004e+01      -9.18688e+00       2.08988e-04       1.26413e+02
 14.800      2.10722e+02       1.28263e+01      -9.12219e+00       2.05656e-04       1.24375e+02
 14.900      2.10708e+02       1.28716e+01      -9.03807e+00       2.02347e-04       1.22366e+02
 15.000      2.10717e+02       1.28432e+01      -8.93680e+00       1.99064e-04       1.20386e+02
 15.100      2.10746e+02       1.27496e+01      -8.82078e+00       1.95814e-04       1.18436e+02
 15.200      2.10792e+02       1.25991e+01      -8.69240e+00       1.92600e-04       1.16517e+02
 15.300      2.10852e+02       1.24004e+01      -8.55406e+00       1.89425e-04       1.14630e+02
 15.400      2.10925e+02       1.21619e+01      -8.40815e+00       1.86295e-04       1.12775e+02
 15.500      2.11007e+02       1.18921e+01      -8.25708e+00       1.83212e-04       1.10952e+02
 15.600      2.11096e+02       1.15995e+01      -8.10323e+00       1.80180e-04       1.09161e+02
 15.700      2.11190e+02       1.12926e+01      -7.94901e+00       1.77201e-04       1.07404e+02
 15.800      2.11285e+02       1.09799e+01      -7.79681e+00       1.74279e-04       1.05680e+02
 15.900      2.11380e+02       1.06698e+01      -7.64904e+00       1.71415e-04       1.03991e+02
 16.000      2.11470e+02       1.03710e+01      -7.50807e+00       1.68613e-04       1.02334e+02
 16.100      2.11555e+02       1.00918e+01      -7.37633e+00       1.65873e-04       1.00712e+02
 16.200      2.11632e+02       9.84044e+00      -7.25611e+00       1.63199e-04       9.91244e+01
 16.300      2.11699e+02       9.61978e+00      -7.14823e+00       1.60589e-04       9.75699e+01
 16.400      2.11757e+02       9.42795e+00      -7.05219e+00       1.58039e-04       9.60471e+01
 16.500      2.11807e+02       9.26293e+00      -6.96745e+00       1.55546e-04       9.45545e+01
 16.600      2.11849e+02       9.12273e+00      -6.89349e+00       1.53108e-04       9.30908e+01
 16.700      2.11885e+02       9.00533e+00      -6.82975e+00       1.50721e-04       9.16546e+01
 16.800      2.11913e+02       8.90872e+00      -6.77571e+00       1.48382e-04       9.02445e+01
 16.900      2.11935e+02       8.83090e+00      -6.73082e+00       1.46089e-04       8.88593e+01
 17.000      2.11952e+02       8.76986e+00      -6.69454e+00       1.43839e-04       8.74977e+01
 17.100      2.11964e+02       8.72359e+00      -6.66635e+00       1.41630e-04       8.61587e+01
 17.200      2.11972e+02       8.69009e+00      -6.64569e+00       1.39459e-04       8.48412e+01
 17.300      2.11976e+02       8.66734e+00      -6.63204e+00       1.37324e-04       8.35441e+01
 17.400      2.11976e+02       8.65334e+00      -6.62485e+00       1.35224e-04       8.22664e+01
 17.500      2.11974e+02       8.64608e+00      -6.62358e+00       1.33155e-04       8.10072e+01
 17.600      2.11970e+02       8.64355e+00      -6.62771e+00       1.31117e-04       7.97655e+01
 17.700      2.11964e+02       8.64374e+00      -6.63668e+00       1.29107e-04       7.85405e+01
 17.800      2.11958e+02       8.64465e+00      -6.64997e+00       1.27123e-04       7.73315e+01
 17.900      2.11950e+02       8.64427e+00      -6.66704e+00       1.25165e-04       7.61375e+01
 18.000      2.11943e+02       8.64059e+00      -6.68734e+00       1.23230e-04       7.49579e+01
 18.100      2.11937e+02       8.63160e+00      -6.71034e+00       1.21317e-04       7.37920e+01
 18.200      2.11932e+02       8.61530e+00      -6.73550e+00       1.19424e-04       7.26391e+01
 18.300      2.11929e+02       8.58967e+00      -6.76228e+00       1.17551e-04       7.14985e+01
 18.400      2.11928e+02       8.55271e+00      -6.79015e+00       1.15695e-04       7.03698e+01
 18.500      2.11930e+02       8.50256e+00      -6.81858e+00       1.13857e-04       6.92523e+01
 18.600      2.11936e+02       8.43913e+00      -6.84720e+00       1.12036e-04       6.81462e+01
 18.700      2.11944e+02       8.36341e+00      -6.87575e+00       1.10233e-04       6.70522e+01
 18.800      2.11955e+02       8.27646e+00      -6.90395e+00       1.08449e-04       6.59708e+01
 18.900      2.11969e+02       8.17929e+00      -6.93154e+00       1.06686e-04       6.49024e+01
 19.000      2.11986e+02       8.07294e+00      -6.95825e+00       1.04943e-04       6.38474e+01
 19.100      2.12005e+02       7.95845e+00      -6.98382e+00       1.03223e-04       6.28064e+01
 19.200      2.12027e+02       7.83684e+00      -7.00797e+00       1.01525e-04       6.17797e+01
 19.300      2.12051e+02       7.70916e+00      -7.03044e+00       9.98503e-05       6.07676e+01
 19.400      2.12078e+02       7.57643e+00      -7.05096e+00       9.81995e-05       5.97706e+01
 19.500      2.12107e+02       7.43968e+00      -7.06927e+00       9.65732e-05       5.87887e+01
 19.600      2.12139e+02       7.29995e+00      -7.08510e+00       9.49719e-05       5.78225e+01
 19.700      2.12172e+02       7.15827e+00      -7.09817e+00       9.33960e-05       5.68719e+01
 19.800      2.12207e+02       7.01567e+00      -7.10823e+00       9.18459e-05       5.59374e+01
 19.900      2.12245e+02       6.87319e+00      -7.11501e+00       9.03219e-05       5.50190e+01
 20.000      2.12284e+02       6.73186e+00      -7.11823e+00       8.88244e-05       5.41168e+01
 20.100      2.12325e+02       6.59271e+00      -7.11763e+00       8.73538e-05       5.32311e+01
 20.200      2.12368e+02       6.45677e+00      -7.11294e+00       8.59101e-05       5.23619e+01
 20.300      2.12412e+02       6.32509e+00      -7.10391e+00       8.44936e-05       5.15093e+01
