# Data Source: NASA GEOS5 Near-Real-Time
# Model Time = 2010-05-11 18:00:00
# Location = [  39.7393, -104.9900 ]
# Fields = [ Z(km), T(K), U(m/s), V(m/s), R(g/cm3), P(mbar) ]
# Ground Height = 1.589
  0.000      2.92756e+02      -6.98842e+00       2.29484e+00       1.19659e-03       1.00539e+03
  0.100      2.92120e+02      -7.01101e+00       2.25592e+00       1.18514e-03       9.93605e+02
  0.200      2.91478e+02      -7.03477e+00       2.22076e+00       1.17383e-03       9.81955e+02
  0.300      2.90820e+02      -7.06177e+00       2.19611e+00       1.16267e-03       9.70423e+02
  0.400      2.90150e+02      -7.08988e+00       2.18400e+00       1.15164e-03       9.59004e+02
  0.500      2.89492e+02      -7.11155e+00       2.18018e+00       1.14065e-03       9.47698e+02
  0.600      2.88855e+02      -7.12942e+00       2.17835e+00       1.12966e-03       9.36504e+02
  0.700      2.88208e+02      -7.16938e+00       2.16855e+00       1.11880e-03       9.25425e+02
  0.800      2.87524e+02      -7.24931e+00       2.14653e+00       1.10818e-03       9.14461e+02
  0.900      2.86820e+02      -7.33711e+00       2.13588e+00       1.09771e-03       9.03609e+02
  1.000      2.86122e+02      -7.38904e+00       2.16382e+00       1.08730e-03       8.92861e+02
  1.100      2.85460e+02      -7.38903e+00       2.20905e+00       1.07683e-03       8.82218e+02
  1.200      2.84861e+02      -7.33937e+00       2.21921e+00       1.06621e-03       8.71684e+02
  1.300      2.84315e+02      -7.27115e+00       2.17007e+00       1.05549e-03       8.61260e+02
  1.400      2.83742e+02      -7.26171e+00       2.08391e+00       1.04495e-03       8.50946e+02
  1.500      2.83073e+02      -7.37383e+00       1.99495e+00       1.03486e-03       8.40742e+02
  1.600      2.82306e+02      -7.57072e+00       1.97808e+00       1.02521e-03       8.30643e+02
  1.700      2.81463e+02      -7.78345e+00       2.11947e+00       1.01590e-03       8.20644e+02
  1.800      2.80581e+02      -7.96272e+00       2.43802e+00       1.00680e-03       8.10739e+02
  1.900      2.79714e+02      -8.08237e+00       2.87335e+00       9.97694e-04       8.00926e+02
  2.000      2.78905e+02      -8.11849e+00       3.36777e+00       9.88440e-04       7.91203e+02
  2.100      2.78134e+02      -8.05201e+00       3.90212e+00       9.79111e-04       7.81569e+02
  2.200      2.77359e+02      -7.86579e+00       4.46987e+00       9.69857e-04       7.72026e+02
  2.300      2.76568e+02      -7.56507e+00       5.05311e+00       9.60724e-04       7.62575e+02
  2.400      2.75794e+02      -7.19178e+00       5.61527e+00       9.51598e-04       7.53218e+02
  2.500      2.75072e+02      -6.79020e+00       6.12114e+00       9.42364e-04       7.43956e+02
  2.600      2.74402e+02      -6.39245e+00       6.57277e+00       9.33025e-04       7.34789e+02
  2.700      2.73759e+02      -6.02247e+00       6.99714e+00       9.23667e-04       7.25715e+02
  2.800      2.73120e+02      -5.69418e+00       7.42511e+00       9.14369e-04       7.16732e+02
  2.900      2.72465e+02      -5.37122e+00       7.90496e+00       9.05194e-04       7.07840e+02
  3.000      2.71779e+02      -5.00132e+00       8.49046e+00       8.96196e-04       6.99037e+02
  3.100      2.71065e+02      -4.53909e+00       9.22433e+00       8.87355e-04       6.90324e+02
  3.200      2.70393e+02      -3.95890e+00       1.01173e+01       8.78448e-04       6.81701e+02
  3.300      2.69842e+02      -3.23886e+00       1.11741e+01       8.69225e-04       6.73169e+02
  3.400      2.69446e+02      -2.39004e+00       1.23501e+01       8.59590e-04       6.64730e+02
  3.500      2.69139e+02      -1.49384e+00       1.34947e+01       8.49762e-04       6.56382e+02
  3.600      2.68844e+02      -6.40404e-01       1.44446e+01       8.39996e-04       6.48126e+02
  3.700      2.68506e+02       1.31407e-01       1.51081e+01       8.30459e-04       6.39961e+02
  3.800      2.68118e+02       8.88513e-01       1.55420e+01       8.21167e-04       6.31888e+02
  3.900      2.67680e+02       1.71087e+00       1.58212e+01       8.12119e-04       6.23904e+02
  4.000      2.67195e+02       2.65348e+00       1.60154e+01       8.03297e-04       6.16009e+02
  4.100      2.66678e+02       3.70495e+00       1.61803e+01       7.94654e-04       6.08201e+02
  4.200      2.66145e+02       4.84296e+00       1.63690e+01       7.86136e-04       6.00478e+02
  4.300      2.65609e+02       6.04683e+00       1.66292e+01       7.77700e-04       5.92839e+02
  4.400      2.65072e+02       7.30373e+00       1.69828e+01       7.69342e-04       5.85282e+02
  4.500      2.64531e+02       8.60324e+00       1.74436e+01       7.61070e-04       5.77807e+02
  4.600      2.63983e+02       9.93459e+00       1.80237e+01       7.52887e-04       5.70412e+02
  4.700      2.63436e+02       1.12829e+01       1.87086e+01       7.44774e-04       5.63096e+02
  4.800      2.62905e+02       1.26302e+01       1.94645e+01       7.36690e-04       5.55859e+02
  4.900      2.62402e+02       1.39585e+01       2.02572e+01       7.28596e-04       5.48702e+02
  5.000      2.61939e+02       1.52504e+01       2.10601e+01       7.20470e-04       5.41624e+02
  5.100      2.61509e+02       1.64901e+01       2.18653e+01       7.12329e-04       5.34625e+02
  5.200      2.61106e+02       1.76619e+01       2.26673e+01       7.04194e-04       5.27705e+02
  5.300      2.60723e+02       1.87500e+01       2.34597e+01       6.96087e-04       5.20864e+02
  5.400      2.60340e+02       1.97401e+01       2.42243e+01       6.88060e-04       5.14102e+02
  5.500      2.59928e+02       2.06180e+01       2.49337e+01       6.80188e-04       5.07415e+02
  5.600      2.59457e+02       2.13700e+01       2.55604e+01       6.72542e-04       5.00803e+02
  5.700      2.58904e+02       2.19892e+01       2.60801e+01       6.65178e-04       4.94264e+02
  5.800      2.58274e+02       2.25104e+01       2.64878e+01       6.58076e-04       4.87796e+02
  5.900      2.57581e+02       2.29832e+01       2.67855e+01       6.51189e-04       4.81396e+02
  6.000      2.56841e+02       2.34570e+01       2.69752e+01       6.44474e-04       4.75063e+02
  6.100      2.56069e+02       2.39742e+01       2.70649e+01       6.37886e-04       4.68794e+02
  6.200      2.55283e+02       2.45472e+01       2.70872e+01       6.31381e-04       4.62588e+02
  6.300      2.54499e+02       2.51807e+01       2.70809e+01       6.24916e-04       4.56447e+02
  6.400      2.53736e+02       2.58793e+01       2.70849e+01       6.18449e-04       4.50369e+02
  6.500      2.53007e+02       2.66444e+01       2.71318e+01       6.11948e-04       4.44354e+02
  6.600      2.52308e+02       2.74607e+01       2.72222e+01       6.05426e-04       4.38403e+02
  6.700      2.51629e+02       2.83082e+01       2.73476e+01       5.98908e-04       4.32516e+02
  6.800      2.50960e+02       2.91667e+01       2.74993e+01       5.92418e-04       4.26692e+02
  6.900      2.50292e+02       3.00168e+01       2.76693e+01       5.85978e-04       4.20931e+02
  7.000      2.49624e+02       3.08458e+01       2.78529e+01       5.79595e-04       4.15234e+02
  7.100      2.48954e+02       3.16449e+01       2.80479e+01       5.73268e-04       4.09599e+02
  7.200      2.48283e+02       3.24052e+01       2.82523e+01       5.66995e-04       4.04025e+02
  7.300      2.47613e+02       3.31181e+01       2.84637e+01       5.60773e-04       3.98513e+02
  7.400      2.46940e+02       3.37779e+01       2.86809e+01       5.54608e-04       3.93061e+02
  7.500      2.46259e+02       3.43849e+01       2.89047e+01       5.48512e-04       3.87669e+02
  7.600      2.45564e+02       3.49400e+01       2.91357e+01       5.42498e-04       3.82335e+02
  7.700      2.44847e+02       3.54441e+01       2.93749e+01       5.36580e-04       3.77060e+02
  7.800      2.44103e+02       3.58983e+01       2.96222e+01       5.30769e-04       3.71843e+02
  7.900      2.43331e+02       3.63062e+01       2.98659e+01       5.25064e-04       3.66683e+02
  8.000      2.42535e+02       3.66735e+01       3.00855e+01       5.19453e-04       3.61579e+02
  8.100      2.41721e+02       3.70061e+01       3.02602e+01       5.13923e-04       3.56529e+02
  8.200      2.40892e+02       3.73096e+01       3.03692e+01       5.08465e-04       3.51532e+02
  8.300      2.40054e+02       3.75886e+01       3.03941e+01       5.03065e-04       3.46589e+02
  8.400      2.39211e+02       3.78351e+01       3.03419e+01       4.97713e-04       3.41697e+02
  8.500      2.38368e+02       3.80339e+01       3.02351e+01       4.92400e-04       3.36858e+02
  8.600      2.37530e+02       3.81693e+01       3.00964e+01       4.87115e-04       3.32071e+02
  8.700      2.36702e+02       3.82257e+01       2.99485e+01       4.81848e-04       3.27336e+02
  8.800      2.35890e+02       3.81886e+01       2.98141e+01       4.76590e-04       3.22654e+02
  8.900      2.35093e+02       3.80647e+01       2.97210e+01       4.71342e-04       3.18022e+02
  9.000      2.34307e+02       3.78818e+01       2.97016e+01       4.66112e-04       3.13442e+02
  9.100      2.33528e+02       3.76689e+01       2.97885e+01       4.60909e-04       3.08913e+02
  9.200      2.32751e+02       3.74547e+01       3.00143e+01       4.55744e-04       3.04435e+02
  9.300      2.31971e+02       3.72681e+01       3.04117e+01       4.50624e-04       3.00007e+02
  9.400      2.31185e+02       3.71313e+01       3.09974e+01       4.45557e-04       2.95628e+02
  9.500      2.30393e+02       3.70403e+01       3.17248e+01       4.40542e-04       2.91299e+02
  9.600      2.29596e+02       3.69844e+01       3.25312e+01       4.35576e-04       2.87018e+02
  9.700      2.28794e+02       3.69529e+01       3.33541e+01       4.30658e-04       2.82786e+02
  9.800      2.27988e+02       3.69351e+01       3.41308e+01       4.25785e-04       2.78602e+02
  9.900      2.27179e+02       3.69204e+01       3.47988e+01       4.20957e-04       2.74465e+02
 10.000      2.26369e+02       3.68988e+01       3.53115e+01       4.16168e-04       2.70376e+02
 10.100      2.25562e+02       3.68625e+01       3.56667e+01       4.11413e-04       2.66334e+02
 10.200      2.24762e+02       3.68039e+01       3.58696e+01       4.06684e-04       2.62338e+02
 10.300      2.23972e+02       3.67156e+01       3.59252e+01       4.01974e-04       2.58389e+02
 10.400      2.23197e+02       3.65900e+01       3.58387e+01       3.97276e-04       2.54486e+02
 10.500      2.22442e+02       3.64196e+01       3.56152e+01       3.92584e-04       2.50629e+02
 10.600      2.21708e+02       3.62000e+01       3.52623e+01       3.87893e-04       2.46817e+02
 10.700      2.20999e+02       3.59474e+01       3.48032e+01       3.83200e-04       2.43052e+02
 10.800      2.20314e+02       3.56863e+01       3.42679e+01       3.78508e-04       2.39332e+02
 10.900      2.19654e+02       3.54413e+01       3.36862e+01       3.73818e-04       2.35658e+02
 11.000      2.19019e+02       3.52369e+01       3.30877e+01       3.69131e-04       2.32030e+02
 11.100      2.18408e+02       3.50978e+01       3.25025e+01       3.64449e-04       2.28448e+02
 11.200      2.17823e+02       3.50484e+01       3.19603e+01       3.59771e-04       2.24912e+02
 11.300      2.17265e+02       3.51021e+01       3.14799e+01       3.55098e-04       2.21421e+02
 11.400      2.16739e+02       3.52298e+01       3.10397e+01       3.50422e-04       2.17977e+02
 11.500      2.16254e+02       3.53930e+01       3.06085e+01       3.45734e-04       2.14579e+02
 11.600      2.15816e+02       3.55532e+01       3.01552e+01       3.41025e-04       2.11228e+02
 11.700      2.15433e+02       3.56717e+01       2.96486e+01       3.36287e-04       2.07924e+02
 11.800      2.15111e+02       3.57099e+01       2.90577e+01       3.31513e-04       2.04666e+02
 11.900      2.14858e+02       3.56291e+01       2.83512e+01       3.26695e-04       2.01454e+02
 12.000      2.14681e+02       3.53923e+01       2.75000e+01       3.21829e-04       1.98290e+02
 12.100      2.14573e+02       3.49887e+01       2.65129e+01       3.16928e-04       1.95172e+02
 12.200      2.14517e+02       3.44317e+01       2.54322e+01       3.12022e-04       1.92100e+02
 12.300      2.14496e+02       3.37351e+01       2.43016e+01       3.07137e-04       1.89075e+02
 12.400      2.14492e+02       3.29132e+01       2.31648e+01       3.02301e-04       1.86094e+02
 12.500      2.14489e+02       3.19800e+01       2.20656e+01       2.97538e-04       1.83159e+02
 12.600      2.14467e+02       3.09494e+01       2.10475e+01       2.92872e-04       1.80269e+02
 12.700      2.14411e+02       2.98357e+01       2.01544e+01       2.88324e-04       1.77423e+02
 12.800      2.14301e+02       2.86527e+01       1.94297e+01       2.83916e-04       1.74621e+02
 12.900      2.14131e+02       2.74176e+01       1.88971e+01       2.79653e-04       1.71863e+02
 13.000      2.13914e+02       2.61548e+01       1.85258e+01       2.75515e-04       1.69147e+02
 13.100      2.13668e+02       2.48904e+01       1.82763e+01       2.71473e-04       1.66475e+02
 13.200      2.13414e+02       2.36503e+01       1.81092e+01       2.67503e-04       1.63845e+02
 13.300      2.13169e+02       2.24604e+01       1.79849e+01       2.63582e-04       1.61258e+02
 13.400      2.12951e+02       2.13466e+01       1.78638e+01       2.59685e-04       1.58712e+02
 13.500      2.12780e+02       2.03349e+01       1.77065e+01       2.55792e-04       1.56207e+02
 13.600      2.12675e+02       1.94511e+01       1.74734e+01       2.51883e-04       1.53743e+02
 13.700      2.12653e+02       1.87212e+01       1.71249e+01       2.47938e-04       1.51320e+02
 13.800      2.12732e+02       1.81704e+01       1.66226e+01       2.43942e-04       1.48937e+02
 13.900      2.12917e+02       1.78001e+01       1.59588e+01       2.39895e-04       1.46593e+02
 14.000      2.13191e+02       1.75849e+01       1.51608e+01       2.35819e-04       1.44288e+02
 14.100      2.13539e+02       1.74979e+01       1.42582e+01       2.31735e-04       1.42020e+02
 14.200      2.13944e+02       1.75121e+01       1.32802e+01       2.27662e-04       1.39789e+02
 14.300      2.14392e+02       1.76006e+01       1.22563e+01       2.23620e-04       1.37594e+02
 14.400      2.14866e+02       1.77365e+01       1.12158e+01       2.19625e-04       1.35435e+02
 14.500      2.15350e+02       1.78928e+01       1.01882e+01       2.15693e-04       1.33310e+02
 14.600      2.15829e+02       1.80427e+01       9.20278e+00       2.11838e-04       1.31218e+02
 14.700      2.16286e+02       1.81590e+01       8.28902e+00       2.08074e-04       1.29160e+02
 14.800      2.16706e+02       1.82150e+01       7.47626e+00       2.04414e-04       1.27134e+02
 14.900      2.17072e+02       1.81837e+01       6.79391e+00       2.00867e-04       1.25140e+02
 15.000      2.17372e+02       1.80432e+01       6.26543e+00       1.97442e-04       1.23176e+02
 15.100      2.17608e+02       1.77974e+01       5.88507e+00       1.94135e-04       1.21244e+02
 15.200      2.17784e+02       1.74578e+01       5.63804e+00       1.90936e-04       1.19342e+02
 15.300      2.17906e+02       1.70359e+01       5.50953e+00       1.87838e-04       1.17472e+02
 15.400      2.17981e+02       1.65434e+01       5.48478e+00       1.84834e-04       1.15633e+02
 15.500      2.18012e+02       1.59919e+01       5.54897e+00       1.81918e-04       1.13825e+02
 15.600      2.18007e+02       1.53929e+01       5.68733e+00       1.79083e-04       1.12049e+02
 15.700      2.17971e+02       1.47580e+01       5.88505e+00       1.76322e-04       1.10303e+02
 15.800      2.17910e+02       1.40988e+01       6.12735e+00       1.73631e-04       1.08589e+02
 15.900      2.17828e+02       1.34268e+01       6.39943e+00       1.71003e-04       1.06905e+02
 16.000      2.17732e+02       1.27538e+01       6.68651e+00       1.68434e-04       1.05253e+02
 16.100      2.17627e+02       1.20911e+01       6.97379e+00       1.65918e-04       1.03631e+02
 16.200      2.17520e+02       1.14506e+01       7.24648e+00       1.63452e-04       1.02040e+02
 16.300      2.17415e+02       1.08436e+01       7.48978e+00       1.61030e-04       1.00479e+02
 16.400      2.17317e+02       1.02811e+01       7.68986e+00       1.58648e-04       9.89487e+01
 16.500      2.17230e+02       9.76579e+00       7.84304e+00       1.56304e-04       9.74476e+01
 16.600      2.17151e+02       9.29567e+00       7.95179e+00       1.53997e-04       9.59745e+01
 16.700      2.17082e+02       8.86855e+00       8.01870e+00       1.51725e-04       9.45283e+01
 16.800      2.17021e+02       8.48230e+00       8.04635e+00       1.49487e-04       9.31078e+01
 16.900      2.16968e+02       8.13472e+00       8.03732e+00       1.47281e-04       9.17117e+01
 17.000      2.16922e+02       7.82368e+00       7.99418e+00       1.45108e-04       9.03391e+01
 17.100      2.16883e+02       7.54703e+00       7.91951e+00       1.42964e-04       8.89889e+01
 17.200      2.16852e+02       7.30260e+00       7.81589e+00       1.40850e-04       8.76602e+01
 17.300      2.16826e+02       7.08823e+00       7.68590e+00       1.38765e-04       8.63521e+01
 17.400      2.16806e+02       6.90178e+00       7.53212e+00       1.36707e-04       8.50634e+01
 17.500      2.16792e+02       6.74109e+00       7.35712e+00       1.34675e-04       8.37935e+01
 17.600      2.16782e+02       6.60400e+00       7.16349e+00       1.32668e-04       8.25415e+01
 17.700      2.16778e+02       6.48835e+00       6.95379e+00       1.30686e-04       8.13066e+01
 17.800      2.16777e+02       6.39199e+00       6.73062e+00       1.28728e-04       8.00881e+01
 17.900      2.16780e+02       6.31277e+00       6.49654e+00       1.26793e-04       7.88852e+01
 18.000      2.16786e+02       6.24852e+00       6.25414e+00       1.24880e-04       7.76974e+01
 18.100      2.16795e+02       6.19709e+00       6.00599e+00       1.22989e-04       7.65238e+01
 18.200      2.16807e+02       6.15633e+00       5.75467e+00       1.21118e-04       7.53639e+01
 18.300      2.16820e+02       6.12408e+00       5.50277e+00       1.19268e-04       7.42171e+01
 18.400      2.16835e+02       6.09818e+00       5.25285e+00       1.17437e-04       7.30829e+01
 18.500      2.16851e+02       6.07648e+00       5.00749e+00       1.15625e-04       7.19607e+01
 18.600      2.16868e+02       6.05683e+00       4.76929e+00       1.13831e-04       7.08501e+01
 18.700      2.16886e+02       6.03706e+00       4.54079e+00       1.12056e-04       6.97504e+01
 18.800      2.16903e+02       6.01570e+00       4.32373e+00       1.10298e-04       6.86617e+01
 18.900      2.16920e+02       5.99264e+00       4.11801e+00       1.08559e-04       6.75844e+01
 19.000      2.16938e+02       5.96795e+00       3.92335e+00       1.06839e-04       6.65190e+01
 19.100      2.16956e+02       5.94170e+00       3.73945e+00       1.05139e-04       6.54659e+01
 19.200      2.16974e+02       5.91395e+00       3.56602e+00       1.03459e-04       6.44257e+01
 19.300      2.16993e+02       5.88476e+00       3.40276e+00       1.01801e-04       6.33987e+01
 19.400      2.17012e+02       5.85420e+00       3.24937e+00       1.00165e-04       6.23852e+01
 19.500      2.17033e+02       5.82235e+00       3.10556e+00       9.85510e-05       6.13858e+01
 19.600      2.17054e+02       5.78925e+00       2.97103e+00       9.69598e-05       6.04006e+01
 19.700      2.17076e+02       5.75499e+00       2.84549e+00       9.53919e-05       5.94300e+01
 19.800      2.17100e+02       5.71962e+00       2.72865e+00       9.38477e-05       5.84743e+01
 19.900      2.17125e+02       5.68321e+00       2.62021e+00       9.23273e-05       5.75335e+01
 20.000      2.17151e+02       5.64584e+00       2.51987e+00       9.08312e-05       5.66080e+01
 20.100      2.17178e+02       5.60755e+00       2.42733e+00       8.93597e-05       5.56980e+01
 20.200      2.17208e+02       5.56843e+00       2.34231e+00       8.79128e-05       5.48036e+01
 20.300      2.17239e+02       5.52853e+00       2.26451e+00       8.64910e-05       5.39250e+01
