# Data Source: NASA MERRA (version 2)
# Model Time = 2011-03-24 18:00:00
# Location = [  39.1026,  -84.5123 ]
# Fields = [ Z(km), T(K), U(m/s), V(m/s), R(g/cm3), P(mbar) ]
# Ground Height = 0.165
  0.000      2.77253e+02       1.51867e+00      -4.58122e+00       1.27911e-03       1.01781e+03
  0.100      2.76364e+02       1.50910e+00      -4.84974e+00       1.26744e-03       1.00529e+03
  0.200      2.75508e+02       1.51397e+00      -5.12225e+00       1.25575e-03       9.92931e+02
  0.300      2.74608e+02       1.49941e+00      -5.38938e+00       1.24436e-03       9.80709e+02
  0.400      2.73594e+02       1.43345e+00      -5.64055e+00       1.23353e-03       9.68589e+02
  0.500      2.72516e+02       1.32240e+00      -5.84095e+00       1.22304e-03       9.56565e+02
  0.600      2.71534e+02       1.20721e+00      -5.93543e+00       1.21218e-03       9.44653e+02
  0.700      2.70684e+02       1.10758e+00      -5.92882e+00       1.20080e-03       9.32859e+02
  0.800      2.69862e+02       1.01811e+00      -5.89440e+00       1.18937e-03       9.21171e+02
  0.900      2.69047e+02       9.70327e-01      -5.85575e+00       1.17797e-03       9.09587e+02
  1.000      2.68354e+02       1.05590e+00      -5.75266e+00       1.16611e-03       8.98112e+02
  1.100      2.67860e+02       1.32618e+00      -5.54195e+00       1.15349e-03       8.86753e+02
  1.200      2.67505e+02       1.72033e+00      -5.24051e+00       1.14038e-03       8.75515e+02
  1.300      2.67211e+02       2.16059e+00      -4.87430e+00       1.12715e-03       8.64407e+02
  1.400      2.66898e+02       2.56917e+00      -4.46927e+00       1.11414e-03       8.53432e+02
  1.500      2.66496e+02       2.87362e+00      -4.05252e+00       1.10166e-03       8.42596e+02
  1.600      2.66024e+02       3.05949e+00      -3.66334e+00       1.08960e-03       8.31894e+02
  1.700      2.65558e+02       3.14798e+00      -3.34854e+00       1.07763e-03       8.21320e+02
  1.800      2.65173e+02       3.16082e+00      -3.15506e+00       1.06546e-03       8.10864e+02
  1.900      2.64947e+02       3.11973e+00      -3.12982e+00       1.05276e-03       8.00518e+02
  2.000      2.64936e+02       3.04829e+00      -3.30501e+00       1.03934e-03       7.90279e+02
  2.100      2.65112e+02       2.97876e+00      -3.64428e+00       1.02534e-03       7.80154e+02
  2.200      2.65421e+02       2.94591e+00      -4.09137e+00       1.01102e-03       7.70156e+02
  2.300      2.65809e+02       2.98449e+00      -4.58999e+00       9.96625e-04       7.60296e+02
  2.400      2.66221e+02       3.12928e+00      -5.08388e+00       9.82371e-04       7.50585e+02
  2.500      2.66610e+02       3.40894e+00      -5.52673e+00       9.68452e-04       7.41031e+02
  2.600      2.66956e+02       3.82291e+00      -5.92021e+00       9.54921e-04       7.31626e+02
  2.700      2.67248e+02       4.36182e+00      -6.28038e+00       9.41800e-04       7.22361e+02
  2.800      2.67474e+02       5.01632e+00      -6.62326e+00       9.29104e-04       7.13227e+02
  2.900      2.67624e+02       5.77705e+00      -6.96491e+00       9.16849e-04       7.04214e+02
  3.000      2.67687e+02       6.63414e+00      -7.32074e+00       9.05048e-04       6.95315e+02
  3.100      2.67662e+02       7.56731e+00      -7.69375e+00       8.93689e-04       6.86523e+02
  3.200      2.67556e+02       8.54663e+00      -8.07534e+00       8.82730e-04       6.77835e+02
  3.300      2.67377e+02       9.54179e+00      -8.45646e+00       8.72135e-04       6.69251e+02
  3.400      2.67132e+02       1.05225e+01      -8.82808e+00       8.61867e-04       6.60766e+02
  3.500      2.66830e+02       1.14583e+01      -9.18118e+00       8.51892e-04       6.52380e+02
  3.600      2.66477e+02       1.23216e+01      -9.50741e+00       8.42178e-04       6.44089e+02
  3.700      2.66082e+02       1.31087e+01      -9.80540e+00       8.32694e-04       6.35892e+02
  3.800      2.65651e+02       1.38300e+01      -1.00777e+01       8.23415e-04       6.27788e+02
  3.900      2.65191e+02       1.44960e+01      -1.03270e+01       8.14315e-04       6.19773e+02
  4.000      2.64708e+02       1.51171e+01      -1.05558e+01       8.05368e-04       6.11848e+02
  4.100      2.64209e+02       1.57038e+01      -1.07668e+01       7.96552e-04       6.04009e+02
  4.200      2.63700e+02       1.62665e+01      -1.09624e+01       7.87844e-04       5.96256e+02
  4.300      2.63188e+02       1.68122e+01      -1.11421e+01       7.79224e-04       5.88588e+02
  4.400      2.62677e+02       1.73446e+01      -1.13020e+01       7.70680e-04       5.81004e+02
  4.500      2.62172e+02       1.78671e+01      -1.14382e+01       7.62199e-04       5.73504e+02
  4.600      2.61676e+02       1.83832e+01      -1.15467e+01       7.53768e-04       5.66087e+02
  4.700      2.61194e+02       1.88963e+01      -1.16236e+01       7.45376e-04       5.58755e+02
  4.800      2.60732e+02       1.94100e+01      -1.16648e+01       7.37010e-04       5.51505e+02
  4.900      2.60291e+02       1.99266e+01      -1.16667e+01       7.28663e-04       5.44337e+02
  5.000      2.59863e+02       2.04408e+01      -1.16276e+01       7.20363e-04       5.37251e+02
  5.100      2.59433e+02       2.09437e+01      -1.15469e+01       7.12147e-04       5.30246e+02
  5.200      2.58987e+02       2.14264e+01      -1.14239e+01       7.04055e-04       5.23319e+02
  5.300      2.58510e+02       2.18798e+01      -1.12580e+01       6.96122e-04       5.16469e+02
  5.400      2.57987e+02       2.22951e+01      -1.10485e+01       6.88385e-04       5.09696e+02
  5.500      2.57404e+02       2.26633e+01      -1.07947e+01       6.80876e-04       5.02998e+02
  5.600      2.56748e+02       2.29763e+01      -1.04966e+01       6.73628e-04       4.96373e+02
  5.700      2.56016e+02       2.32399e+01      -1.01641e+01       6.66634e-04       4.89820e+02
  5.800      2.55221e+02       2.34728e+01      -9.81606e+00       6.59858e-04       4.83336e+02
  5.900      2.54374e+02       2.36939e+01      -9.47177e+00       6.53265e-04       4.76918e+02
  6.000      2.53485e+02       2.39219e+01      -9.15040e+00       6.46819e-04       4.70563e+02
  6.100      2.52567e+02       2.41760e+01      -8.87114e+00       6.40488e-04       4.64268e+02
  6.200      2.51630e+02       2.44749e+01      -8.65319e+00       6.34237e-04       4.58032e+02
  6.300      2.50685e+02       2.48376e+01      -8.51576e+00       6.28036e-04       4.51851e+02
  6.400      2.49744e+02       2.52815e+01      -8.47690e+00       6.21854e-04       4.45724e+02
  6.500      2.48815e+02       2.58074e+01      -8.54293e+00       6.15674e-04       4.39652e+02
  6.600      2.47903e+02       2.64066e+01      -8.71319e+00       6.09489e-04       4.33641e+02
  6.700      2.47016e+02       2.70701e+01      -8.98695e+00       6.03289e-04       4.27694e+02
  6.800      2.46159e+02       2.77890e+01      -9.36347e+00       5.97067e-04       4.21813e+02
  6.900      2.45338e+02       2.85544e+01      -9.84199e+00       5.90814e-04       4.16004e+02
  7.000      2.44560e+02       2.93574e+01      -1.04218e+01       5.84523e-04       4.10269e+02
  7.100      2.43830e+02       3.01891e+01      -1.11021e+01       5.78186e-04       4.04610e+02
  7.200      2.43155e+02       3.10406e+01      -1.18822e+01       5.71796e-04       3.99032e+02
  7.300      2.42538e+02       3.19067e+01      -1.27577e+01       5.65350e-04       3.93532e+02
  7.400      2.41974e+02       3.27916e+01      -1.37151e+01       5.58851e-04       3.88103e+02
  7.500      2.41456e+02       3.37007e+01      -1.47398e+01       5.52306e-04       3.82736e+02
  7.600      2.40977e+02       3.46395e+01      -1.58171e+01       5.45719e-04       3.77421e+02
  7.700      2.40532e+02       3.56134e+01      -1.69325e+01       5.39096e-04       3.72152e+02
  7.800      2.40114e+02       3.66278e+01      -1.80711e+01       5.32442e-04       3.66920e+02
  7.900      2.39716e+02       3.76881e+01      -1.92185e+01       5.25764e-04       3.61718e+02
  8.000      2.39333e+02       3.87999e+01      -2.03599e+01       5.19066e-04       3.56539e+02
  8.100      2.38957e+02       3.99685e+01      -2.14806e+01       5.12354e-04       3.51376e+02
  8.200      2.38583e+02       4.11980e+01      -2.25664e+01       5.05636e-04       3.46227e+02
  8.300      2.38208e+02       4.24787e+01      -2.36068e+01       4.98942e-04       3.41105e+02
  8.400      2.37830e+02       4.37941e+01      -2.45932e+01       4.92311e-04       3.36037e+02
  8.500      2.37446e+02       4.51273e+01      -2.55171e+01       4.85782e-04       3.31046e+02
  8.600      2.37056e+02       4.64614e+01      -2.63699e+01       4.79391e-04       3.26154e+02
  8.700      2.36657e+02       4.77797e+01      -2.71431e+01       4.73173e-04       3.21381e+02
  8.800      2.36248e+02       4.90654e+01      -2.78282e+01       4.67159e-04       3.16748e+02
  8.900      2.35826e+02       5.03016e+01      -2.84166e+01       4.61380e-04       3.12272e+02
  9.000      2.35391e+02       5.14716e+01      -2.88999e+01       4.55866e-04       3.07971e+02
  9.100      2.34941e+02       5.25585e+01      -2.92694e+01       4.50645e-04       3.03861e+02
  9.200      2.34473e+02       5.35456e+01      -2.95167e+01       4.45743e-04       2.99957e+02
  9.300      2.33987e+02       5.44200e+01      -2.96365e+01       4.41175e-04       2.96267e+02
  9.400      2.33483e+02       5.51844e+01      -2.96359e+01       4.36913e-04       2.92774e+02
  9.500      2.32963e+02       5.58455e+01      -2.95252e+01       4.32921e-04       2.89453e+02
  9.600      2.32429e+02       5.64096e+01      -2.93145e+01       4.29162e-04       2.86282e+02
  9.700      2.31883e+02       5.68833e+01      -2.90141e+01       4.25604e-04       2.83241e+02
  9.800      2.31325e+02       5.72731e+01      -2.86342e+01       4.22213e-04       2.80309e+02
  9.900      2.30759e+02       5.75855e+01      -2.81850e+01       4.18959e-04       2.77467e+02
 10.000      2.30184e+02       5.78269e+01      -2.76768e+01       4.15809e-04       2.74695e+02
 10.100      2.29603e+02       5.80039e+01      -2.71196e+01       4.12736e-04       2.71977e+02
 10.200      2.29018e+02       5.81229e+01      -2.65238e+01       4.09710e-04       2.69294e+02
 10.300      2.28429e+02       5.81905e+01      -2.58996e+01       4.06703e-04       2.66631e+02
 10.400      2.27839e+02       5.82132e+01      -2.52572e+01       4.03688e-04       2.63971e+02
 10.500      2.27250e+02       5.81974e+01      -2.46067e+01       4.00638e-04       2.61299e+02
 10.600      2.26662e+02       5.81497e+01      -2.39584e+01       3.97529e-04       2.58600e+02
 10.700      2.26077e+02       5.80765e+01      -2.33226e+01       3.94334e-04       2.55861e+02
 10.800      2.25498e+02       5.79843e+01      -2.27093e+01       3.91031e-04       2.53067e+02
 10.900      2.24925e+02       5.78798e+01      -2.21289e+01       3.87596e-04       2.50207e+02
 11.000      2.24360e+02       5.77676e+01      -2.15897e+01       3.84011e-04       2.47270e+02
 11.100      2.23805e+02       5.76449e+01      -2.10902e+01       3.80273e-04       2.44257e+02
 11.200      2.23261e+02       5.75062e+01      -2.06263e+01       3.76384e-04       2.41172e+02
 11.300      2.22730e+02       5.73459e+01      -2.01937e+01       3.72349e-04       2.38018e+02
 11.400      2.22212e+02       5.71587e+01      -1.97881e+01       3.68170e-04       2.34800e+02
 11.500      2.21709e+02       5.69389e+01      -1.94053e+01       3.63851e-04       2.31521e+02
 11.600      2.21223e+02       5.66813e+01      -1.90410e+01       3.59396e-04       2.28184e+02
 11.700      2.20755e+02       5.63802e+01      -1.86910e+01       3.54809e-04       2.24795e+02
 11.800      2.20306e+02       5.60303e+01      -1.83509e+01       3.50094e-04       2.21356e+02
 11.900      2.19877e+02       5.56260e+01      -1.80166e+01       3.45255e-04       2.17872e+02
 12.000      2.19471e+02       5.51619e+01      -1.76838e+01       3.40298e-04       2.14347e+02
 12.100      2.19088e+02       5.46325e+01      -1.73482e+01       3.35227e-04       2.10784e+02
 12.200      2.18729e+02       5.40324e+01      -1.70055e+01       3.30047e-04       2.07188e+02
 12.300      2.18397e+02       5.33560e+01      -1.66515e+01       3.24764e-04       2.03562e+02
 12.400      2.18093e+02       5.25979e+01      -1.62820e+01       3.19383e-04       1.99910e+02
 12.500      2.17816e+02       5.17556e+01      -1.58939e+01       3.13914e-04       1.96238e+02
 12.600      2.17566e+02       5.08375e+01      -1.54890e+01       3.08380e-04       1.92557e+02
 12.700      2.17340e+02       4.98549e+01      -1.50704e+01       3.02807e-04       1.88880e+02
 12.800      2.17135e+02       4.88187e+01      -1.46409e+01       2.97219e-04       1.85220e+02
 12.900      2.16948e+02       4.77400e+01      -1.42034e+01       2.91639e-04       1.81587e+02
 13.000      2.16778e+02       4.66299e+01      -1.37609e+01       2.86089e-04       1.77991e+02
 13.100      2.16621e+02       4.54994e+01      -1.33163e+01       2.80588e-04       1.74442e+02
 13.200      2.16475e+02       4.43598e+01      -1.28726e+01       2.75154e-04       1.70948e+02
 13.300      2.16337e+02       4.32219e+01      -1.24326e+01       2.69806e-04       1.67519e+02
 13.400      2.16205e+02       4.20969e+01      -1.19992e+01       2.64558e-04       1.64161e+02
 13.500      2.16077e+02       4.09958e+01      -1.15755e+01       2.59425e-04       1.60880e+02
 13.600      2.15950e+02       3.99298e+01      -1.11643e+01       2.54420e-04       1.57683e+02
 13.700      2.15820e+02       3.89099e+01      -1.07685e+01       2.49556e-04       1.54576e+02
 13.800      2.15687e+02       3.79471e+01      -1.03912e+01       2.44843e-04       1.51563e+02
 13.900      2.15546e+02       3.70524e+01      -1.00350e+01       2.40291e-04       1.48648e+02
 14.000      2.15398e+02       3.62293e+01      -9.70125e+00       2.35901e-04       1.45832e+02
 14.100      2.15243e+02       3.54736e+01      -9.38907e+00       2.31664e-04       1.43110e+02
 14.200      2.15081e+02       3.47809e+01      -9.09761e+00       2.27570e-04       1.40475e+02
 14.300      2.14914e+02       3.41467e+01      -8.82600e+00       2.23613e-04       1.37925e+02
 14.400      2.14742e+02       3.35663e+01      -8.57339e+00       2.19783e-04       1.35455e+02
 14.500      2.14567e+02       3.30353e+01      -8.33889e+00       2.16074e-04       1.33060e+02
 14.600      2.14388e+02       3.25491e+01      -8.12164e+00       2.12479e-04       1.30737e+02
 14.700      2.14206e+02       3.21032e+01      -7.92078e+00       2.08990e-04       1.28481e+02
 14.800      2.14023e+02       3.16930e+01      -7.73544e+00       2.05602e-04       1.26290e+02
 14.900      2.13839e+02       3.13141e+01      -7.56476e+00       2.02308e-04       1.24160e+02
 15.000      2.13655e+02       3.09619e+01      -7.40785e+00       1.99103e-04       1.22088e+02
 15.100      2.13472e+02       3.06319e+01      -7.26387e+00       1.95981e-04       1.20071e+02
 15.200      2.13290e+02       3.03194e+01      -7.13193e+00       1.92938e-04       1.18105e+02
 15.300      2.13110e+02       3.00201e+01      -7.01118e+00       1.89967e-04       1.16189e+02
 15.400      2.12934e+02       2.97294e+01      -6.90074e+00       1.87065e-04       1.14319e+02
 15.500      2.12761e+02       2.94427e+01      -6.79976e+00       1.84226e-04       1.12493e+02
 15.600      2.12592e+02       2.91554e+01      -6.70735e+00       1.81448e-04       1.10708e+02
 15.700      2.12429e+02       2.88632e+01      -6.62266e+00       1.78725e-04       1.08963e+02
 15.800      2.12272e+02       2.85614e+01      -6.54482e+00       1.76054e-04       1.07255e+02
 15.900      2.12122e+02       2.82455e+01      -6.47295e+00       1.73430e-04       1.05583e+02
 16.000      2.11979e+02       2.79110e+01      -6.40620e+00       1.70852e-04       1.03943e+02
 16.100      2.11845e+02       2.75533e+01      -6.34370e+00       1.68314e-04       1.02334e+02
 16.200      2.11720e+02       2.71679e+01      -6.28457e+00       1.65815e-04       1.00755e+02
 16.300      2.11605e+02       2.67505e+01      -6.22798e+00       1.63350e-04       9.92036e+01
 16.400      2.11500e+02       2.63000e+01      -6.17344e+00       1.60919e-04       9.76787e+01
 16.500      2.11405e+02       2.58185e+01      -6.12087e+00       1.58520e-04       9.61792e+01
 16.600      2.11319e+02       2.53085e+01      -6.07018e+00       1.56152e-04       9.47042e+01
 16.700      2.11243e+02       2.47721e+01      -6.02128e+00       1.53815e-04       9.32530e+01
 16.800      2.11175e+02       2.42117e+01      -5.97409e+00       1.51508e-04       9.18248e+01
 16.900      2.11115e+02       2.36296e+01      -5.92852e+00       1.49230e-04       9.04185e+01
 17.000      2.11064e+02       2.30281e+01      -5.88450e+00       1.46980e-04       8.90336e+01
 17.100      2.11020e+02       2.24096e+01      -5.84192e+00       1.44758e-04       8.76693e+01
 17.200      2.10984e+02       2.17763e+01      -5.80072e+00       1.42562e-04       8.63249e+01
 17.300      2.10954e+02       2.11305e+01      -5.76081e+00       1.40394e-04       8.49997e+01
 17.400      2.10931e+02       2.04745e+01      -5.72209e+00       1.38250e-04       8.36930e+01
 17.500      2.10915e+02       1.98107e+01      -5.68449e+00       1.36132e-04       8.24043e+01
 17.600      2.10904e+02       1.91414e+01      -5.64792e+00       1.34039e-04       8.11329e+01
 17.700      2.10899e+02       1.84688e+01      -5.61230e+00       1.31969e-04       7.98783e+01
 17.800      2.10899e+02       1.77952e+01      -5.57754e+00       1.29923e-04       7.86399e+01
 17.900      2.10903e+02       1.71231e+01      -5.54355e+00       1.27901e-04       7.74173e+01
 18.000      2.10913e+02       1.64546e+01      -5.51026e+00       1.25900e-04       7.62099e+01
 18.100      2.10926e+02       1.57921e+01      -5.47758e+00       1.23922e-04       7.50172e+01
 18.200      2.10943e+02       1.51379e+01      -5.44542e+00       1.21965e-04       7.38388e+01
 18.300      2.10964e+02       1.44943e+01      -5.41369e+00       1.20030e-04       7.26743e+01
 18.400      2.10988e+02       1.38636e+01      -5.38232e+00       1.18116e-04       7.15233e+01
 18.500      2.11014e+02       1.32481e+01      -5.35122e+00       1.16222e-04       7.03853e+01
 18.600      2.11043e+02       1.26500e+01      -5.32031e+00       1.14348e-04       6.92601e+01
 18.700      2.11074e+02       1.20700e+01      -5.28952e+00       1.12495e-04       6.81477e+01
 18.800      2.11107e+02       1.15081e+01      -5.25883e+00       1.10663e-04       6.70486e+01
 18.900      2.11143e+02       1.09639e+01      -5.22819e+00       1.08854e-04       6.59632e+01
 19.000      2.11181e+02       1.04373e+01      -5.19756e+00       1.07067e-04       6.48919e+01
 19.100      2.11221e+02       9.92810e+00      -5.16690e+00       1.05303e-04       6.38349e+01
 19.200      2.11264e+02       9.43609e+00      -5.13618e+00       1.03562e-04       6.27926e+01
 19.300      2.11308e+02       8.96107e+00      -5.10536e+00       1.01846e-04       6.17653e+01
 19.400      2.11355e+02       8.50285e+00      -5.07439e+00       1.00155e-04       6.07531e+01
 19.500      2.11405e+02       8.06123e+00      -5.04324e+00       9.84888e-05       5.97563e+01
 19.600      2.11457e+02       7.63601e+00      -5.01187e+00       9.68479e-05       5.87751e+01
 19.700      2.11511e+02       7.22699e+00      -4.98024e+00       9.52327e-05       5.78097e+01
 19.800      2.11567e+02       6.83399e+00      -4.94831e+00       9.36436e-05       5.68602e+01
 19.900      2.11626e+02       6.45679e+00      -4.91604e+00       9.20806e-05       5.59267e+01
 20.000      2.11687e+02       6.09521e+00      -4.88340e+00       9.05441e-05       5.50093e+01
 20.100      2.11751e+02       5.74905e+00      -4.85034e+00       8.90341e-05       5.41082e+01
 20.200      2.11817e+02       5.41811e+00      -4.81683e+00       8.75508e-05       5.32233e+01
 20.300      2.11885e+02       5.10219e+00      -4.78283e+00       8.60944e-05       5.23548e+01
