# Data Source: NASA MERRA (version 2)
# Model Calculated 2019-07-18 21:45:05
# Model Time = 2011-09-05 18:00:00
# Location = [  39.1026,  -84.5123 ]
# Fields = [ Z(km), T(K), U(m/s), V(m/s), R(g/cm3), P(mbar) ]
# Ground Height = 0.165
  0.000      2.91282e+02      -4.90242e-01      -5.25176e+00       1.21236e-03       1.01351e+03
  0.100      2.90577e+02      -5.53958e-01      -5.57634e+00       1.20112e-03       1.00168e+03
  0.200      2.89886e+02      -6.05289e-01      -5.85981e+00       1.18994e-03       9.89999e+02
  0.300      2.89111e+02      -7.30591e-01      -6.38884e+00       1.17920e-03       9.78437e+02
  0.400      2.88166e+02      -1.00539e+00      -7.40090e+00       1.16921e-03       9.66982e+02
  0.500      2.87113e+02      -1.39372e+00      -8.62678e+00       1.15972e-03       9.55626e+02
  0.600      2.86096e+02      -1.79855e+00      -9.51693e+00       1.15013e-03       9.44366e+02
  0.700      2.85171e+02      -2.22542e+00      -9.92583e+00       1.14022e-03       9.33201e+02
  0.800      2.84306e+02      -2.78219e+00      -1.01131e+01       1.13012e-03       9.22128e+02
  0.900      2.83511e+02      -3.50069e+00      -1.02256e+01       1.11980e-03       9.11152e+02
  1.000      2.82880e+02      -4.26074e+00      -1.01638e+01       1.10891e-03       9.00287e+02
  1.100      2.82487e+02      -4.94266e+00      -9.83413e+00       1.09721e-03       8.89547e+02
  1.200      2.82289e+02      -5.50199e+00      -9.28708e+00       1.08487e-03       8.78931e+02
  1.300      2.82209e+02      -5.91466e+00      -8.61223e+00       1.07222e-03       8.68433e+02
  1.400      2.82168e+02      -6.15658e+00      -7.89912e+00       1.05955e-03       8.58049e+02
  1.500      2.82091e+02      -6.20378e+00      -7.23708e+00       1.04715e-03       8.47775e+02
  1.600      2.81930e+02      -6.05286e+00      -6.68004e+00       1.03518e-03       8.37608e+02
  1.700      2.81709e+02      -5.74407e+00      -6.20661e+00       1.02356e-03       8.27549e+02
  1.800      2.81455e+02      -5.32326e+00      -5.78581e+00       1.01216e-03       8.17600e+02
  1.900      2.81199e+02      -4.83626e+00      -5.38662e+00       1.00089e-03       8.07760e+02
  2.000      2.80969e+02      -4.32884e+00      -4.97812e+00       9.89645e-04       7.98032e+02
  2.100      2.80780e+02      -3.83073e+00      -4.54406e+00       9.78378e-04       7.88415e+02
  2.200      2.80608e+02      -3.33618e+00      -4.10061e+00       9.67173e-04       7.78907e+02
  2.300      2.80424e+02      -2.83471e+00      -3.66830e+00       9.56127e-04       7.69506e+02
  2.400      2.80200e+02      -2.31582e+00      -3.26765e+00       9.45331e-04       7.60210e+02
  2.500      2.79908e+02      -1.76903e+00      -2.91919e+00       9.34872e-04       7.51016e+02
  2.600      2.79525e+02      -1.18521e+00      -2.63777e+00       9.24815e-04       7.41922e+02
  2.700      2.79062e+02      -5.62927e-01      -2.40641e+00       9.15119e-04       7.32926e+02
  2.800      2.78538e+02       9.66069e-02      -2.19709e+00       9.05706e-04       7.24025e+02
  2.900      2.77974e+02       7.92167e-01      -1.98177e+00       8.96502e-04       7.15217e+02
  3.000      2.77391e+02       1.52253e+00      -1.73241e+00       8.87436e-04       7.06499e+02
  3.100      2.76810e+02       2.28642e+00      -1.42109e+00       8.78437e-04       6.97869e+02
  3.200      2.76243e+02       3.07699e+00      -1.03461e+00       8.69464e-04       6.89326e+02
  3.300      2.75688e+02       3.87645e+00      -5.88542e-01       8.60525e-04       6.80869e+02
  3.400      2.75143e+02       4.66575e+00      -1.01766e-01       8.51631e-04       6.72498e+02
  3.500      2.74603e+02       5.42585e+00       4.06823e-01       8.42794e-04       6.64214e+02
  3.600      2.74065e+02       6.13770e+00       9.18334e-01       8.34027e-04       6.56017e+02
  3.700      2.73525e+02       6.78235e+00       1.41390e+00       8.25341e-04       6.47906e+02
  3.800      2.72981e+02       7.35218e+00       1.87692e+00       8.16742e-04       6.39881e+02
  3.900      2.72433e+02       7.86097e+00       2.29512e+00       8.08231e-04       6.31941e+02
  4.000      2.71879e+02       8.32490e+00       2.65671e+00       7.99808e-04       6.24084e+02
  4.100      2.71320e+02       8.76016e+00       2.94988e+00       7.91472e-04       6.16309e+02
  4.200      2.70755e+02       9.18292e+00       3.16284e+00       7.83221e-04       6.08615e+02
  4.300      2.70184e+02       9.60936e+00       3.28379e+00       7.75056e-04       6.01000e+02
  4.400      2.69606e+02       1.00535e+01       3.30597e+00       7.66976e-04       5.93463e+02
  4.500      2.69024e+02       1.05164e+01       3.25276e+00       7.58974e-04       5.86003e+02
  4.600      2.68440e+02       1.09943e+01       3.15863e+00       7.51043e-04       5.78621e+02
  4.700      2.67856e+02       1.14836e+01       3.05809e+00       7.43177e-04       5.71315e+02
  4.800      2.67274e+02       1.19805e+01       2.98564e+00       7.35369e-04       5.64085e+02
  4.900      2.66698e+02       1.24813e+01       2.97579e+00       7.27613e-04       5.56932e+02
  5.000      2.66129e+02       1.29823e+01       3.06304e+00       7.19901e-04       5.49853e+02
  5.100      2.65570e+02       1.34791e+01       3.27402e+00       7.12229e-04       5.42850e+02
  5.200      2.65022e+02       1.39651e+01       3.60571e+00       7.04592e-04       5.35922e+02
  5.300      2.64488e+02       1.44330e+01       4.04817e+00       6.96986e-04       5.29069e+02
  5.400      2.63971e+02       1.48757e+01       4.59143e+00       6.89407e-04       5.22292e+02
  5.500      2.63471e+02       1.52858e+01       5.22554e+00       6.81851e-04       5.15591e+02
  5.600      2.62992e+02       1.56562e+01       5.94054e+00       6.74315e-04       5.08964e+02
  5.700      2.62535e+02       1.59796e+01       6.72646e+00       6.66795e-04       5.02414e+02
  5.800      2.62102e+02       1.62495e+01       7.57390e+00       6.59288e-04       4.95938e+02
  5.900      2.61693e+02       1.64692e+01       8.48055e+00       6.51797e-04       4.89538e+02
  6.000      2.61304e+02       1.66486e+01       9.44920e+00       6.44330e-04       4.83211e+02
  6.100      2.60933e+02       1.67980e+01       1.04828e+01       6.36894e-04       4.76955e+02
  6.200      2.60577e+02       1.69277e+01       1.15842e+01       6.29495e-04       4.70771e+02
  6.300      2.60233e+02       1.70479e+01       1.27563e+01       6.22139e-04       4.64656e+02
  6.400      2.59899e+02       1.71688e+01       1.40021e+01       6.14833e-04       4.58610e+02
  6.500      2.59571e+02       1.73008e+01       1.53244e+01       6.07583e-04       4.52631e+02
  6.600      2.59247e+02       1.74534e+01       1.67255e+01       6.00395e-04       4.46718e+02
  6.700      2.58924e+02       1.76293e+01       1.81948e+01       5.93278e-04       4.40872e+02
  6.800      2.58598e+02       1.78245e+01       1.97110e+01       5.86242e-04       4.35095e+02
  6.900      2.58265e+02       1.80346e+01       2.12521e+01       5.79298e-04       4.29388e+02
  7.000      2.57921e+02       1.82555e+01       2.27964e+01       5.72457e-04       4.23752e+02
  7.100      2.57563e+02       1.84830e+01       2.43222e+01       5.65728e-04       4.18190e+02
  7.200      2.57187e+02       1.87129e+01       2.58075e+01       5.59121e-04       4.12703e+02
  7.300      2.56790e+02       1.89410e+01       2.72306e+01       5.52644e-04       4.07291e+02
  7.400      2.56367e+02       1.91632e+01       2.85697e+01       5.46305e-04       4.01957e+02
  7.500      2.55915e+02       1.93753e+01       2.98041e+01       5.40112e-04       3.96699e+02
  7.600      2.55434e+02       1.95765e+01       3.09278e+01       5.34057e-04       3.91515e+02
  7.700      2.54925e+02       1.97681e+01       3.19453e+01       5.28122e-04       3.86392e+02
  7.800      2.54389e+02       1.99513e+01       3.28614e+01       5.22292e-04       3.81323e+02
  7.900      2.53828e+02       2.01275e+01       3.36808e+01       5.16549e-04       3.76299e+02
  8.000      2.53244e+02       2.02978e+01       3.44082e+01       5.10879e-04       3.71312e+02
  8.100      2.52637e+02       2.04637e+01       3.50484e+01       5.05266e-04       3.66353e+02
  8.200      2.52010e+02       2.06264e+01       3.56061e+01       4.99697e-04       3.61416e+02
  8.300      2.51364e+02       2.07872e+01       3.60860e+01       4.94158e-04       3.56493e+02
  8.400      2.50700e+02       2.09474e+01       3.64929e+01       4.88635e-04       3.51578e+02
  8.500      2.50021e+02       2.11082e+01       3.68314e+01       4.83118e-04       3.46666e+02
  8.600      2.49327e+02       2.12702e+01       3.71045e+01       4.77621e-04       3.41770e+02
  8.700      2.48622e+02       2.14332e+01       3.73144e+01       4.72169e-04       3.36914e+02
  8.800      2.47908e+02       2.15974e+01       3.74633e+01       4.66788e-04       3.32118e+02
  8.900      2.47188e+02       2.17626e+01       3.75531e+01       4.61502e-04       3.27403e+02
  9.000      2.46464e+02       2.19290e+01       3.75861e+01       4.56335e-04       3.22789e+02
  9.100      2.45739e+02       2.20964e+01       3.75643e+01       4.51307e-04       3.18294e+02
  9.200      2.45015e+02       2.22650e+01       3.74898e+01       4.46439e-04       3.13934e+02
  9.300      2.44296e+02       2.24346e+01       3.73648e+01       4.41753e-04       3.09726e+02
  9.400      2.43583e+02       2.26054e+01       3.71913e+01       4.37265e-04       3.05685e+02
  9.500      2.42879e+02       2.27773e+01       3.69716e+01       4.32995e-04       3.01825e+02
  9.600      2.42187e+02       2.29503e+01       3.67077e+01       4.28960e-04       2.98159e+02
  9.700      2.41506e+02       2.31256e+01       3.64034e+01       4.25154e-04       2.94684e+02
  9.800      2.40836e+02       2.33053e+01       3.60639e+01       4.21554e-04       2.91377e+02
  9.900      2.40173e+02       2.34915e+01       3.56946e+01       4.18136e-04       2.88220e+02
 10.000      2.39518e+02       2.36865e+01       3.53008e+01       4.14878e-04       2.85194e+02
 10.100      2.38866e+02       2.38924e+01       3.48878e+01       4.11758e-04       2.82279e+02
 10.200      2.38217e+02       2.41115e+01       3.44608e+01       4.08754e-04       2.79458e+02
 10.300      2.37569e+02       2.43458e+01       3.40253e+01       4.05846e-04       2.76715e+02
 10.400      2.36920e+02       2.45977e+01       3.35865e+01       4.03014e-04       2.74033e+02
 10.500      2.36267e+02       2.48692e+01       3.31497e+01       4.00239e-04       2.71397e+02
 10.600      2.35610e+02       2.51626e+01       3.27203e+01       3.97502e-04       2.68791e+02
 10.700      2.34946e+02       2.54799e+01       3.23035e+01       3.94785e-04       2.66201e+02
 10.800      2.34273e+02       2.58235e+01       3.19047e+01       3.92071e-04       2.63614e+02
 10.900      2.33589e+02       2.61955e+01       3.15292e+01       3.89341e-04       2.61015e+02
 11.000      2.32894e+02       2.65981e+01       3.11823e+01       3.86580e-04       2.58392e+02
 11.100      2.32184e+02       2.70334e+01       3.08693e+01       3.83772e-04       2.55733e+02
 11.200      2.31457e+02       2.75037e+01       3.05955e+01       3.80900e-04       2.53025e+02
 11.300      2.30713e+02       2.80110e+01       3.03663e+01       3.77951e-04       2.50259e+02
 11.400      2.29949e+02       2.85562e+01       3.01850e+01       3.74910e-04       2.47424e+02
 11.500      2.29169e+02       2.91322e+01       3.00455e+01       3.71771e-04       2.44520e+02
 11.600      2.28376e+02       2.97294e+01       2.99383e+01       3.68529e-04       2.41549e+02
 11.700      2.27575e+02       3.03380e+01       2.98538e+01       3.65178e-04       2.38512e+02
 11.800      2.26768e+02       3.09486e+01       2.97827e+01       3.61715e-04       2.35412e+02
 11.900      2.25959e+02       3.15515e+01       2.97155e+01       3.58135e-04       2.32252e+02
 12.000      2.25153e+02       3.21371e+01       2.96426e+01       3.54435e-04       2.29032e+02
 12.100      2.24354e+02       3.26958e+01       2.95547e+01       3.50610e-04       2.25756e+02
 12.200      2.23564e+02       3.32179e+01       2.94422e+01       3.46659e-04       2.22426e+02
 12.300      2.22789e+02       3.36938e+01       2.92956e+01       3.42577e-04       2.19045e+02
 12.400      2.22031e+02       3.41140e+01       2.91056e+01       3.38364e-04       2.15615e+02
 12.500      2.21295e+02       3.44688e+01       2.88626e+01       3.34017e-04       2.12140e+02
 12.600      2.20584e+02       3.47485e+01       2.85572e+01       3.29535e-04       2.08621e+02
 12.700      2.19903e+02       3.49436e+01       2.81799e+01       3.24917e-04       2.05062e+02
 12.800      2.19254e+02       3.50445e+01       2.77212e+01       3.20163e-04       2.01465e+02
 12.900      2.18642e+02       3.50422e+01       2.71723e+01       3.15273e-04       1.97835e+02
 13.000      2.18068e+02       3.49369e+01       2.65349e+01       3.10265e-04       1.94181e+02
 13.100      2.17527e+02       3.47363e+01       2.58185e+01       3.05166e-04       1.90516e+02
 13.200      2.17019e+02       3.44484e+01       2.50333e+01       3.00002e-04       1.86854e+02
 13.300      2.16540e+02       3.40808e+01       2.41889e+01       2.94798e-04       1.83208e+02
 13.400      2.16089e+02       3.36414e+01       2.32954e+01       2.89578e-04       1.79589e+02
 13.500      2.15662e+02       3.31381e+01       2.23626e+01       2.84364e-04       1.76007e+02
 13.600      2.15258e+02       3.25787e+01       2.14005e+01       2.79178e-04       1.72474e+02
 13.700      2.14874e+02       3.19709e+01       2.04189e+01       2.74039e-04       1.68996e+02
 13.800      2.14507e+02       3.13228e+01       1.94278e+01       2.68966e-04       1.65585e+02
 13.900      2.14155e+02       3.06420e+01       1.84371e+01       2.63975e-04       1.62245e+02
 14.000      2.13816e+02       2.99363e+01       1.74566e+01       2.59082e-04       1.58986e+02
 14.100      2.13486e+02       2.92137e+01       1.64964e+01       2.54303e-04       1.55813e+02
 14.200      2.13165e+02       2.84820e+01       1.55662e+01       2.49649e-04       1.52731e+02
 14.300      2.12849e+02       2.77490e+01       1.46760e+01       2.45134e-04       1.49747e+02
 14.400      2.12536e+02       2.70208e+01       1.38332e+01       2.40765e-04       1.46861e+02
 14.500      2.12227e+02       2.62989e+01       1.30375e+01       2.36535e-04       1.44072e+02
 14.600      2.11923e+02       2.55835e+01       1.22872e+01       2.32438e-04       1.41373e+02
 14.700      2.11624e+02       2.48749e+01       1.15803e+01       2.28464e-04       1.38760e+02
 14.800      2.11332e+02       2.41734e+01       1.09152e+01       2.24608e-04       1.36229e+02
 14.900      2.11046e+02       2.34795e+01       1.02900e+01       2.20862e-04       1.33776e+02
 15.000      2.10767e+02       2.27933e+01       9.70300e+00       2.17219e-04       1.31396e+02
 15.100      2.10497e+02       2.21153e+01       9.15234e+00       2.13674e-04       1.29086e+02
 15.200      2.10236e+02       2.14457e+01       8.63625e+00       2.10221e-04       1.26843e+02
 15.300      2.09985e+02       2.07848e+01       8.15293e+00       2.06854e-04       1.24662e+02
 15.400      2.09745e+02       2.01331e+01       7.70061e+00       2.03567e-04       1.22541e+02
 15.500      2.09515e+02       1.94908e+01       7.27749e+00       2.00356e-04       1.20476e+02
 15.600      2.09298e+02       1.88582e+01       6.88178e+00       1.97217e-04       1.18465e+02
 15.700      2.09094e+02       1.82356e+01       6.51169e+00       1.94143e-04       1.16505e+02
 15.800      2.08903e+02       1.76234e+01       6.16543e+00       1.91132e-04       1.14593e+02
 15.900      2.08726e+02       1.70220e+01       5.84122e+00       1.88178e-04       1.12727e+02
 16.000      2.08565e+02       1.64315e+01       5.53725e+00       1.85278e-04       1.10904e+02
 16.100      2.08419e+02       1.58524e+01       5.25175e+00       1.82429e-04       1.09122e+02
 16.200      2.08290e+02       1.52849e+01       4.98291e+00       1.79626e-04       1.07379e+02
 16.300      2.08178e+02       1.47295e+01       4.72896e+00       1.76866e-04       1.05672e+02
 16.400      2.08084e+02       1.41863e+01       4.48810e+00       1.74147e-04       1.04001e+02
 16.500      2.08008e+02       1.36558e+01       4.25854e+00       1.71464e-04       1.02362e+02
 16.600      2.07953e+02       1.31382e+01       4.03849e+00       1.68816e-04       1.00754e+02
 16.700      2.07917e+02       1.26339e+01       3.82621e+00       1.66199e-04       9.91748e+01
 16.800      2.07902e+02       1.21429e+01       3.62098e+00       1.63613e-04       9.76241e+01
 16.900      2.07906e+02       1.16649e+01       3.42304e+00       1.61056e-04       9.61004e+01
 17.000      2.07929e+02       1.11998e+01       3.23265e+00       1.58529e-04       9.46028e+01
 17.100      2.07970e+02       1.07474e+01       3.05009e+00       1.56030e-04       9.31304e+01
 17.200      2.08028e+02       1.03073e+01       2.87562e+00       1.53562e-04       9.16824e+01
 17.300      2.08103e+02       9.87936e+00       2.70954e+00       1.51122e-04       9.02580e+01
 17.400      2.08193e+02       9.46338e+00       2.55209e+00       1.48710e-04       8.88564e+01
 17.500      2.08299e+02       9.05910e+00       2.40356e+00       1.46327e-04       8.74769e+01
 17.600      2.08419e+02       8.66631e+00       2.26421e+00       1.43972e-04       8.61186e+01
 17.700      2.08553e+02       8.28477e+00       2.13433e+00       1.41645e-04       8.47810e+01
 17.800      2.08700e+02       7.91425e+00       2.01417e+00       1.39345e-04       8.34634e+01
 17.900      2.08859e+02       7.55453e+00       1.90402e+00       1.37073e-04       8.21651e+01
 18.000      2.09030e+02       7.20537e+00       1.80413e+00       1.34828e-04       8.08856e+01
 18.100      2.09211e+02       6.86655e+00       1.71480e+00       1.32611e-04       7.96242e+01
 18.200      2.09402e+02       6.53784e+00       1.63627e+00       1.30420e-04       7.83804e+01
 18.300      2.09603e+02       6.21902e+00       1.56884e+00       1.28256e-04       7.71536e+01
 18.400      2.09812e+02       5.90985e+00       1.51277e+00       1.26118e-04       7.59433e+01
 18.500      2.10029e+02       5.61010e+00       1.46833e+00       1.24006e-04       7.47491e+01
 18.600      2.10254e+02       5.31955e+00       1.43579e+00       1.21921e-04       7.35704e+01
 18.700      2.10484e+02       5.03797e+00       1.41542e+00       1.19861e-04       7.24068e+01
 18.800      2.10721e+02       4.76514e+00       1.40751e+00       1.17827e-04       7.12580e+01
 18.900      2.10962e+02       4.50081e+00       1.41231e+00       1.15818e-04       7.01233e+01
 19.000      2.11208e+02       4.24477e+00       1.42993e+00       1.13834e-04       6.90026e+01
 19.100      2.11457e+02       3.99686e+00       1.45956e+00       1.11877e-04       6.78961e+01
 19.200      2.11709e+02       3.75691e+00       1.50005e+00       1.09946e-04       6.68039e+01
 19.300      2.11964e+02       3.52478e+00       1.55026e+00       1.08043e-04       6.57265e+01
 19.400      2.12221e+02       3.30031e+00       1.60905e+00       1.06168e-04       6.46641e+01
 19.500      2.12479e+02       3.08334e+00       1.67528e+00       1.04322e-04       6.36168e+01
 19.600      2.12737e+02       2.87373e+00       1.74780e+00       1.02505e-04       6.25850e+01
 19.700      2.12996e+02       2.67131e+00       1.82548e+00       1.00718e-04       6.15688e+01
 19.800      2.13254e+02       2.47593e+00       1.90718e+00       9.89616e-05       6.05683e+01
 19.900      2.13511e+02       2.28744e+00       1.99174e+00       9.72357e-05       5.95837e+01
 20.000      2.13766e+02       2.10569e+00       2.07805e+00       9.55408e-05       5.86151e+01
 20.100      2.14019e+02       1.93052e+00       2.16494e+00       9.38771e-05       5.76626e+01
 20.200      2.14269e+02       1.76177e+00       2.25128e+00       9.22450e-05       5.67263e+01
