# Data Source: NASA MERRA (version 1)
# Model Time = 2010-03-18 18:00:00
# Location = [  39.7393, -104.9900 ]
# Fields = [ Z(km), T(K), U(m/s), V(m/s), R(g/cm3), P(mbar) ]
# Ground Height = 1.589
  0.000      2.97558e+02       2.77549e-01      -1.58120e+00       1.18151e-03       1.00900e+03
  0.100      2.96898e+02       2.89133e-01      -1.57069e+00       1.17029e-03       9.97199e+02
  0.200      2.96237e+02       2.99689e-01      -1.56385e+00       1.15918e-03       9.85530e+02
  0.300      2.95572e+02       3.04902e-01      -1.57600e+00       1.14817e-03       9.73983e+02
  0.400      2.94906e+02       3.00681e-01      -1.61355e+00       1.13726e-03       9.62552e+02
  0.500      2.94255e+02       2.83614e-01      -1.65544e+00       1.12639e-03       9.51245e+02
  0.600      2.93631e+02       2.53902e-01      -1.68033e+00       1.11552e-03       9.40072e+02
  0.700      2.93013e+02       2.31224e-01      -1.69472e+00       1.10474e-03       9.29026e+02
  0.800      2.92370e+02       2.39704e-01      -1.71379e+00       1.09414e-03       9.18095e+02
  0.900      2.91710e+02       2.72936e-01      -1.73937e+00       1.08369e-03       9.07276e+02
  1.000      2.91074e+02       3.03159e-01      -1.76400e+00       1.07325e-03       8.96571e+02
  1.100      2.90477e+02       3.14946e-01      -1.78430e+00       1.06275e-03       8.85982e+02
  1.200      2.89898e+02       3.13322e-01      -1.80382e+00       1.05229e-03       8.75511e+02
  1.300      2.89311e+02       3.05150e-01      -1.82673e+00       1.04196e-03       8.65159e+02
  1.400      2.88691e+02       2.97292e-01      -1.85720e+00       1.03184e-03       8.54925e+02
  1.500      2.88013e+02       2.96509e-01      -1.89918e+00       1.02203e-03       8.44810e+02
  1.600      2.87271e+02       3.07419e-01      -1.95183e+00       1.01255e-03       8.34812e+02
  1.700      2.86476e+02       3.32571e-01      -2.00970e+00       1.00332e-03       8.24921e+02
  1.800      2.85641e+02       3.74432e-01      -2.06717e+00       9.94314e-04       8.15130e+02
  1.900      2.84778e+02       4.35469e-01      -2.11860e+00       9.85463e-04       8.05431e+02
  2.000      2.83898e+02       5.18191e-01      -2.15858e+00       9.76720e-04       7.95819e+02
  2.100      2.83017e+02       6.26499e-01      -2.18820e+00       9.68029e-04       7.86290e+02
  2.200      2.82153e+02       7.65937e-01      -2.21630e+00       9.59331e-04       7.76846e+02
  2.300      2.81326e+02       9.42143e-01      -2.25214e+00       9.50566e-04       7.67492e+02
  2.400      2.80554e+02       1.16076e+00      -2.30500e+00       9.41678e-04       7.58229e+02
  2.500      2.79856e+02       1.42741e+00      -2.38413e+00       9.32610e-04       7.49060e+02
  2.600      2.79241e+02       1.74328e+00      -2.49227e+00       9.23342e-04       7.39987e+02
  2.700      2.78686e+02       2.09635e+00      -2.61291e+00       9.13954e-04       7.31007e+02
  2.800      2.78164e+02       2.47224e+00      -2.72601e+00       9.04538e-04       7.22120e+02
  2.900      2.77645e+02       2.85653e+00      -2.81153e+00       8.95187e-04       7.13322e+02
  3.000      2.77103e+02       3.23481e+00      -2.84945e+00       8.85988e-04       7.04614e+02
  3.100      2.76510e+02       3.59288e+00      -2.82021e+00       8.77025e-04       6.95992e+02
  3.200      2.75855e+02       3.92188e+00      -2.71762e+00       8.68323e-04       6.87456e+02
  3.300      2.75150e+02       4.21881e+00      -2.55008e+00       8.59848e-04       6.79004e+02
  3.400      2.74402e+02       4.48096e+00      -2.32672e+00       8.51561e-04       6.70633e+02
  3.500      2.73624e+02       4.70562e+00      -2.05667e+00       8.43428e-04       6.62343e+02
  3.600      2.72824e+02       4.89007e+00      -1.74907e+00       8.35413e-04       6.54133e+02
  3.700      2.72014e+02       5.03189e+00      -1.41311e+00       8.27484e-04       6.46000e+02
  3.800      2.71199e+02       5.13490e+00      -1.05923e+00       8.19622e-04       6.37944e+02
  3.900      2.70378e+02       5.20932e+00      -6.99154e-01       8.11825e-04       6.29965e+02
  4.000      2.69554e+02       5.26568e+00      -3.44673e-01       8.04092e-04       6.22061e+02
  4.100      2.68725e+02       5.31449e+00      -7.57052e-03       7.96422e-04       6.14232e+02
  4.200      2.67892e+02       5.36627e+00       3.00370e-01       7.88812e-04       6.06478e+02
  4.300      2.67056e+02       5.43152e+00       5.67372e-01       7.81261e-04       5.98798e+02
  4.400      2.66216e+02       5.51701e+00       7.85055e-01       7.73769e-04       5.91191e+02
  4.500      2.65374e+02       5.62012e+00       9.53594e-01       7.66333e-04       5.83658e+02
  4.600      2.64530e+02       5.73675e+00       1.07449e+00       7.58952e-04       5.76197e+02
  4.700      2.63684e+02       5.86282e+00       1.14924e+00       7.51624e-04       5.68809e+02
  4.800      2.62837e+02       5.99423e+00       1.17935e+00       7.44348e-04       5.61492e+02
  4.900      2.61988e+02       6.12689e+00       1.16631e+00       7.37122e-04       5.54247e+02
  5.000      2.61140e+02       6.25679e+00       1.11177e+00       7.29945e-04       5.47073e+02
  5.100      2.60291e+02       6.38265e+00       1.02247e+00       7.22816e-04       5.39969e+02
  5.200      2.59443e+02       6.50661e+00       9.11631e-01       7.15734e-04       5.32936e+02
  5.300      2.58594e+02       6.63108e+00       7.92893e-01       7.08699e-04       5.25972e+02
  5.400      2.57746e+02       6.75844e+00       6.79896e-01       7.01710e-04       5.19076e+02
  5.500      2.56897e+02       6.89107e+00       5.86278e-01       6.94767e-04       5.12248e+02
  5.600      2.56049e+02       7.03136e+00       5.25677e-01       6.87869e-04       5.05488e+02
  5.700      2.55201e+02       7.18171e+00       5.11712e-01       6.81017e-04       4.98795e+02
  5.800      2.54354e+02       7.34443e+00       5.52639e-01       6.74208e-04       4.92169e+02
  5.900      2.53508e+02       7.52166e+00       6.44078e-01       6.67441e-04       4.85608e+02
  6.000      2.52664e+02       7.71555e+00       7.79832e-01       6.60714e-04       4.79114e+02
  6.100      2.51823e+02       7.92822e+00       9.53701e-01       6.54024e-04       4.72685e+02
  6.200      2.50987e+02       8.16181e+00       1.15949e+00       6.47371e-04       4.66322e+02
  6.300      2.50155e+02       8.41844e+00       1.39100e+00       6.40751e-04       4.60025e+02
  6.400      2.49330e+02       8.70024e+00       1.64203e+00       6.34163e-04       4.53793e+02
  6.500      2.48511e+02       9.00927e+00       1.90642e+00       6.27606e-04       4.47625e+02
  6.600      2.47699e+02       9.34439e+00       2.17892e+00       6.21080e-04       4.41523e+02
  6.700      2.46889e+02       9.70015e+00       2.45561e+00       6.14593e-04       4.35484e+02
  6.800      2.46081e+02       1.00708e+01       2.73263e+00       6.08152e-04       4.29508e+02
  6.900      2.45269e+02       1.04506e+01       3.00613e+00       6.01763e-04       4.23594e+02
  7.000      2.44452e+02       1.08338e+01       3.27226e+00       5.95433e-04       4.17743e+02
  7.100      2.43627e+02       1.12147e+01       3.52716e+00       5.89168e-04       4.11952e+02
  7.200      2.42790e+02       1.15875e+01       3.76698e+00       5.82975e-04       4.06221e+02
  7.300      2.41939e+02       1.19465e+01       3.98788e+00       5.76858e-04       4.00550e+02
  7.400      2.41072e+02       1.22864e+01       4.18681e+00       5.70823e-04       3.94938e+02
  7.500      2.40191e+02       1.26052e+01       4.36504e+00       5.64859e-04       3.89385e+02
  7.600      2.39303e+02       1.29017e+01       4.52531e+00       5.58956e-04       3.83890e+02
  7.700      2.38411e+02       1.31749e+01       4.67035e+00       5.53101e-04       3.78454e+02
  7.800      2.37522e+02       1.34237e+01       4.80288e+00       5.47284e-04       3.73076e+02
  7.900      2.36639e+02       1.36469e+01       4.92563e+00       5.41491e-04       3.67756e+02
  8.000      2.35768e+02       1.38434e+01       5.04134e+00       5.35714e-04       3.62493e+02
  8.100      2.34915e+02       1.40121e+01       5.15273e+00       5.29940e-04       3.57288e+02
  8.200      2.34083e+02       1.41520e+01       5.26254e+00       5.24160e-04       3.52140e+02
  8.300      2.33277e+02       1.42621e+01       5.37335e+00       5.18365e-04       3.47049e+02
  8.400      2.32498e+02       1.43460e+01       5.48554e+00       5.12558e-04       3.42015e+02
  8.500      2.31739e+02       1.44106e+01       5.59772e+00       5.06752e-04       3.37036e+02
  8.600      2.30996e+02       1.44630e+01       5.70844e+00       5.00958e-04       3.32114e+02
  8.700      2.30262e+02       1.45103e+01       5.81622e+00       4.95190e-04       3.27248e+02
  8.800      2.29534e+02       1.45594e+01       5.91962e+00       4.89459e-04       3.22437e+02
  8.900      2.28804e+02       1.46176e+01       6.01718e+00       4.83776e-04       3.17681e+02
  9.000      2.28069e+02       1.46917e+01       6.10746e+00       4.78153e-04       3.12979e+02
  9.100      2.27323e+02       1.47890e+01       6.18898e+00       4.72601e-04       3.08332e+02
  9.200      2.26560e+02       1.49164e+01       6.26030e+00       4.67129e-04       3.03739e+02
  9.300      2.25775e+02       1.50811e+01       6.31996e+00       4.61747e-04       2.99200e+02
  9.400      2.24966e+02       1.52865e+01       6.36667e+00       4.56459e-04       2.94715e+02
  9.500      2.24139e+02       1.55278e+01       6.39949e+00       4.51253e-04       2.90281e+02
  9.600      2.23298e+02       1.57990e+01       6.41757e+00       4.46115e-04       2.85900e+02
  9.700      2.22451e+02       1.60941e+01       6.42002e+00       4.41032e-04       2.81570e+02
  9.800      2.21603e+02       1.64070e+01       6.40597e+00       4.35989e-04       2.77290e+02
  9.900      2.20761e+02       1.67317e+01       6.37456e+00       4.30976e-04       2.73060e+02
 10.000      2.19931e+02       1.70621e+01       6.32492e+00       4.25980e-04       2.68879e+02
 10.100      2.19118e+02       1.73922e+01       6.25617e+00       4.20988e-04       2.64747e+02
 10.200      2.18330e+02       1.77160e+01       6.16745e+00       4.15990e-04       2.60662e+02
 10.300      2.17572e+02       1.80274e+01       6.05787e+00       4.10974e-04       2.56625e+02
 10.400      2.16850e+02       1.83203e+01       5.92658e+00       4.05931e-04       2.52634e+02
 10.500      2.16170e+02       1.85889e+01       5.77272e+00       4.00849e-04       2.48690e+02
 10.600      2.15537e+02       1.88305e+01       5.59640e+00       3.95725e-04       2.44792e+02
 10.700      2.14951e+02       1.90479e+01       5.39924e+00       3.90563e-04       2.40942e+02
 10.800      2.14412e+02       1.92442e+01       5.18300e+00       3.85366e-04       2.37140e+02
 10.900      2.13922e+02       1.94227e+01       4.94942e+00       3.80139e-04       2.33388e+02
 11.000      2.13479e+02       1.95865e+01       4.70024e+00       3.74886e-04       2.29687e+02
 11.100      2.13086e+02       1.97389e+01       4.43723e+00       3.69611e-04       2.26038e+02
 11.200      2.12742e+02       1.98830e+01       4.16212e+00       3.64318e-04       2.22442e+02
 11.300      2.12448e+02       2.00220e+01       3.87667e+00       3.59011e-04       2.18898e+02
 11.400      2.12204e+02       2.01592e+01       3.58263e+00       3.53695e-04       2.15410e+02
 11.500      2.12011e+02       2.02976e+01       3.28174e+00       3.48374e-04       2.11975e+02
 11.600      2.11868e+02       2.04406e+01       2.97575e+00       3.43051e-04       2.08596e+02
 11.700      2.11777e+02       2.05912e+01       2.66642e+00       3.37729e-04       2.05272e+02
 11.800      2.11738e+02       2.07528e+01       2.35548e+00       3.32414e-04       2.02005e+02
 11.900      2.11752e+02       2.09283e+01       2.04469e+00       3.27109e-04       1.98793e+02
 12.000      2.11816e+02       2.11190e+01       1.73523e+00       3.21819e-04       1.95637e+02
 12.100      2.11926e+02       2.13230e+01       1.42753e+00       3.16554e-04       1.92536e+02
 12.200      2.12077e+02       2.15383e+01       1.12199e+00       3.11321e-04       1.89489e+02
 12.300      2.12264e+02       2.17629e+01       8.18992e-01       3.06130e-04       1.86493e+02
 12.400      2.12482e+02       2.19948e+01       5.18920e-01       3.00987e-04       1.83549e+02
 12.500      2.12726e+02       2.22320e+01       2.22157e-01       2.95900e-04       1.80654e+02
 12.600      2.12991e+02       2.24725e+01      -7.09096e-02       2.90876e-04       1.77808e+02
 12.700      2.13273e+02       2.27144e+01      -3.59891e-01       2.85920e-04       1.75010e+02
 12.800      2.13567e+02       2.29555e+01      -6.44406e-01       2.81037e-04       1.72258e+02
 12.900      2.13867e+02       2.31940e+01      -9.24067e-01       2.76234e-04       1.69552e+02
 13.000      2.14169e+02       2.34277e+01      -1.19849e+00       2.71514e-04       1.66890e+02
 13.100      2.14467e+02       2.36548e+01      -1.46729e+00       2.66883e-04       1.64272e+02
 13.200      2.14758e+02       2.38731e+01      -1.73008e+00       2.62344e-04       1.61697e+02
 13.300      2.15035e+02       2.40808e+01      -1.98647e+00       2.57900e-04       1.59163e+02
 13.400      2.15295e+02       2.42758e+01      -2.23608e+00       2.53555e-04       1.56670e+02
 13.500      2.15531e+02       2.44561e+01      -2.47853e+00       2.49311e-04       1.54217e+02
 13.600      2.15740e+02       2.46197e+01      -2.71343e+00       2.45172e-04       1.51804e+02
 13.700      2.15916e+02       2.47646e+01      -2.94039e+00       2.41139e-04       1.49428e+02
 13.800      2.16056e+02       2.48895e+01      -3.15918e+00       2.37211e-04       1.47090e+02
 13.900      2.16162e+02       2.49947e+01      -3.36987e+00       2.33386e-04       1.44789e+02
 14.000      2.16236e+02       2.50803e+01      -3.57256e+00       2.29657e-04       1.42524e+02
 14.100      2.16279e+02       2.51467e+01      -3.76737e+00       2.26019e-04       1.40295e+02
 14.200      2.16292e+02       2.51943e+01      -3.95438e+00       2.22470e-04       1.38100e+02
 14.300      2.16279e+02       2.52233e+01      -4.13372e+00       2.19003e-04       1.35939e+02
 14.400      2.16239e+02       2.52341e+01      -4.30547e+00       2.15616e-04       1.33813e+02
 14.500      2.16176e+02       2.52269e+01      -4.46975e+00       2.12304e-04       1.31718e+02
 14.600      2.16090e+02       2.52022e+01      -4.62666e+00       2.09064e-04       1.29657e+02
 14.700      2.15984e+02       2.51602e+01      -4.77630e+00       2.05892e-04       1.27627e+02
 14.800      2.15859e+02       2.51012e+01      -4.91878e+00       2.02785e-04       1.25628e+02
 14.900      2.15716e+02       2.50255e+01      -5.05420e+00       1.99739e-04       1.23660e+02
 15.000      2.15559e+02       2.49335e+01      -5.18267e+00       1.96753e-04       1.21722e+02
 15.100      2.15388e+02       2.48255e+01      -5.30428e+00       1.93822e-04       1.19813e+02
 15.200      2.15205e+02       2.47017e+01      -5.41915e+00       1.90944e-04       1.17934e+02
 15.300      2.15011e+02       2.45626e+01      -5.52738e+00       1.88116e-04       1.16083e+02
 15.400      2.14809e+02       2.44084e+01      -5.62907e+00       1.85336e-04       1.14260e+02
 15.500      2.14601e+02       2.42394e+01      -5.72433e+00       1.82601e-04       1.12465e+02
 15.600      2.14387e+02       2.40560e+01      -5.81326e+00       1.79909e-04       1.10696e+02
 15.700      2.14170e+02       2.38585e+01      -5.89596e+00       1.77258e-04       1.08955e+02
 15.800      2.13951e+02       2.36471e+01      -5.97254e+00       1.74645e-04       1.07239e+02
 15.900      2.13733e+02       2.34223e+01      -6.04311e+00       1.72069e-04       1.05549e+02
 16.000      2.13516e+02       2.31843e+01      -6.10776e+00       1.69527e-04       1.03885e+02
 16.100      2.13303e+02       2.29334e+01      -6.16661e+00       1.67018e-04       1.02245e+02
 16.200      2.13095e+02       2.26700e+01      -6.21974e+00       1.64539e-04       1.00629e+02
 16.300      2.12894e+02       2.23943e+01      -6.26728e+00       1.62090e-04       9.90380e+01
 16.400      2.12701e+02       2.21068e+01      -6.30926e+00       1.59669e-04       9.74703e+01
 16.500      2.12515e+02       2.18078e+01      -6.34571e+00       1.57277e-04       9.59260e+01
 16.600      2.12336e+02       2.14976e+01      -6.37662e+00       1.54913e-04       9.44048e+01
 16.700      2.12166e+02       2.11768e+01      -6.40203e+00       1.52577e-04       9.29065e+01
 16.800      2.12002e+02       2.08456e+01      -6.42193e+00       1.50270e-04       9.14309e+01
 16.900      2.11846e+02       2.05045e+01      -6.43635e+00       1.47990e-04       8.99775e+01
 17.000      2.11697e+02       2.01538e+01      -6.44529e+00       1.45738e-04       8.85462e+01
 17.100      2.11555e+02       1.97939e+01      -6.44877e+00       1.43515e-04       8.71367e+01
 17.200      2.11420e+02       1.94252e+01      -6.44680e+00       1.41318e-04       8.57487e+01
 17.300      2.11293e+02       1.90481e+01      -6.43940e+00       1.39150e-04       8.43819e+01
 17.400      2.11172e+02       1.86630e+01      -6.42657e+00       1.37009e-04       8.30362e+01
 17.500      2.11058e+02       1.82702e+01      -6.40833e+00       1.34895e-04       8.17112e+01
 17.600      2.10951e+02       1.78702e+01      -6.38470e+00       1.32809e-04       8.04066e+01
 17.700      2.10851e+02       1.74632e+01      -6.35568e+00       1.30750e-04       7.91223e+01
 17.800      2.10758e+02       1.70498e+01      -6.32128e+00       1.28717e-04       7.78579e+01
 17.900      2.10672e+02       1.66303e+01      -6.28153e+00       1.26711e-04       7.66133e+01
 18.000      2.10592e+02       1.62050e+01      -6.23643e+00       1.24732e-04       7.53880e+01
 18.100      2.10518e+02       1.57744e+01      -6.18600e+00       1.22780e-04       7.41819e+01
 18.200      2.10452e+02       1.53389e+01      -6.13025e+00       1.20853e-04       7.29948e+01
 18.300      2.10391e+02       1.48988e+01      -6.06919e+00       1.18953e-04       7.18264e+01
 18.400      2.10337e+02       1.44545e+01      -6.00283e+00       1.17078e-04       7.06764e+01
 18.500      2.10289e+02       1.40063e+01      -5.93120e+00       1.15230e-04       6.95446e+01
 18.600      2.10248e+02       1.35549e+01      -5.85452e+00       1.13406e-04       6.84307e+01
 18.700      2.10212e+02       1.31007e+01      -5.77327e+00       1.11609e-04       6.73346e+01
 18.800      2.10182e+02       1.26444e+01      -5.68795e+00       1.09837e-04       6.62560e+01
 18.900      2.10158e+02       1.21865e+01      -5.59908e+00       1.08090e-04       6.51947e+01
 19.000      2.10139e+02       1.17276e+01      -5.50716e+00       1.06368e-04       6.41506e+01
 19.100      2.10126e+02       1.12684e+01      -5.41269e+00       1.04672e-04       6.31232e+01
 19.200      2.10117e+02       1.08094e+01      -5.31617e+00       1.03000e-04       6.21126e+01
 19.300      2.10112e+02       1.03512e+01      -5.21811e+00       1.01354e-04       6.11185e+01
 19.400      2.10113e+02       9.89442e+00      -5.11902e+00       9.97317e-05       6.01406e+01
 19.500      2.10117e+02       9.43964e+00      -5.01940e+00       9.81345e-05       5.91786e+01
 19.600      2.10126e+02       8.98746e+00      -4.91975e+00       9.65617e-05       5.82326e+01
 19.700      2.10138e+02       8.53846e+00      -4.82057e+00       9.50132e-05       5.73021e+01
 19.800      2.10154e+02       8.09326e+00      -4.72238e+00       9.34889e-05       5.63871e+01
 19.900      2.10173e+02       7.65243e+00      -4.62568e+00       9.19885e-05       5.54872e+01
 20.000      2.10196e+02       7.21656e+00      -4.53096e+00       9.05119e-05       5.46023e+01
 20.100      2.10221e+02       6.78626e+00      -4.43874e+00       8.90588e-05       5.37322e+01
 20.200      2.10249e+02       6.36211e+00      -4.34952e+00       8.76290e-05       5.28767e+01
 20.300      2.10280e+02       5.94472e+00      -4.26380e+00       8.62225e-05       5.20356e+01
