# Data Source: NASA MERRA (version 2)
# Model Time = 2011-05-05 18:00:00
# Location = [  39.1026,  -84.5123 ]
# Fields = [ Z(km), T(K), U(m/s), V(m/s), R(g/cm3), P(mbar) ]
# Ground Height = 0.165
  0.000      2.89707e+02      -1.73934e-01       2.87006e+00       1.23181e-03       1.02420e+03
  0.100      2.88775e+02      -1.90792e-01       3.07988e+00       1.22120e-03       1.01211e+03
  0.200      2.87854e+02      -2.44710e-01       3.32665e+00       1.21066e-03       1.00018e+03
  0.300      2.86934e+02      -2.99184e-01       3.57397e+00       1.20023e-03       9.88394e+02
  0.400      2.86002e+02      -3.17706e-01       3.78545e+00       1.18993e-03       9.76721e+02
  0.500      2.85048e+02      -2.73555e-01       3.93163e+00       1.17975e-03       9.65139e+02
  0.600      2.84075e+02      -2.01385e-01       4.02654e+00       1.16970e-03       9.53646e+02
  0.700      2.83090e+02      -1.54686e-01       4.09810e+00       1.15974e-03       9.42254e+02
  0.800      2.82117e+02      -1.32666e-01       4.14148e+00       1.14980e-03       9.30964e+02
  0.900      2.81186e+02      -1.02129e-01       4.13398e+00       1.13974e-03       9.19773e+02
  1.000      2.80278e+02      -6.52339e-02       4.11887e+00       1.12964e-03       9.08680e+02
  1.100      2.79324e+02      -6.29561e-02       4.21106e+00       1.11977e-03       8.97677e+02
  1.200      2.78295e+02      -1.11400e-01       4.46101e+00       1.11025e-03       8.86764e+02
  1.300      2.77260e+02      -1.68747e-01       4.77221e+00       1.10080e-03       8.75945e+02
  1.400      2.76300e+02      -1.85632e-01       5.02899e+00       1.09111e-03       8.65226e+02
  1.500      2.75496e+02      -1.12690e-01       5.11569e+00       1.08086e-03       8.54612e+02
  1.600      2.74926e+02       9.67089e-02       4.92304e+00       1.06979e-03       8.44109e+02
  1.700      2.74585e+02       4.41452e-01       4.45340e+00       1.05794e-03       8.33719e+02
  1.800      2.74401e+02       8.79838e-01       3.80404e+00       1.04560e-03       8.23441e+02
  1.900      2.74298e+02       1.36888e+00       3.07525e+00       1.03308e-03       8.13276e+02
  2.000      2.74202e+02       1.86558e+00       2.36730e+00       1.02066e-03       8.03222e+02
  2.100      2.74044e+02       2.32990e+00       1.77407e+00       1.00862e-03       7.93281e+02
  2.200      2.73817e+02       2.75486e+00       1.31767e+00       9.96943e-04       7.83453e+02
  2.300      2.73556e+02       3.15419e+00       9.75181e-01       9.85518e-04       7.73737e+02
  2.400      2.73297e+02       3.54198e+00       7.22971e-01       9.74213e-04       7.64137e+02
  2.500      2.73074e+02       3.93228e+00       5.37427e-01       9.62905e-04       7.54651e+02
  2.600      2.72921e+02       4.33886e+00       3.95237e-01       9.51483e-04       7.45281e+02
  2.700      2.72834e+02       4.76853e+00       2.80012e-01       9.39968e-04       7.36025e+02
  2.800      2.72772e+02       5.22130e+00       1.82197e-01       9.28500e-04       7.26881e+02
  2.900      2.72695e+02       5.69684e+00       9.25220e-02       9.17219e-04       7.17846e+02
  3.000      2.72559e+02       6.19485e+00       1.72059e-03       9.06259e-04       7.08917e+02
  3.100      2.72325e+02       6.71502e+00      -9.94754e-02       8.95748e-04       7.00092e+02
  3.200      2.71959e+02       7.25587e+00      -2.19094e-01       8.85774e-04       6.91367e+02
  3.300      2.71474e+02       7.81098e+00      -3.60042e-01       8.76284e-04       6.82740e+02
  3.400      2.70891e+02       8.37269e+00      -5.23908e-01       8.67195e-04       6.74206e+02
  3.500      2.70231e+02       8.93333e+00      -7.12278e-01       8.58424e-04       6.65762e+02
  3.600      2.69517e+02       9.48523e+00      -9.26740e-01       8.49895e-04       6.57405e+02
  3.700      2.68771e+02       1.00207e+01      -1.16888e+00       8.41530e-04       6.49132e+02
  3.800      2.68009e+02       1.05329e+01      -1.43692e+00       8.33269e-04       6.40940e+02
  3.900      2.67241e+02       1.10170e+01      -1.71926e+00       8.25090e-04       6.32829e+02
  4.000      2.66470e+02       1.14687e+01      -2.00253e+00       8.16976e-04       6.24798e+02
  4.100      2.65701e+02       1.18837e+01      -2.27333e+00       8.08914e-04       6.16847e+02
  4.200      2.64939e+02       1.22576e+01      -2.51828e+00       8.00889e-04       6.08976e+02
  4.300      2.64189e+02       1.25861e+01      -2.72400e+00       7.92886e-04       6.01185e+02
  4.400      2.63456e+02       1.28655e+01      -2.87921e+00       7.84895e-04       5.93473e+02
  4.500      2.62739e+02       1.30963e+01      -2.98614e+00       7.76914e-04       5.85840e+02
  4.600      2.62037e+02       1.32804e+01      -3.05226e+00       7.68949e-04       5.78285e+02
  4.700      2.61349e+02       1.34199e+01      -3.08509e+00       7.61004e-04       5.70808e+02
  4.800      2.60674e+02       1.35169e+01      -3.09214e+00       7.53083e-04       5.63408e+02
  4.900      2.60010e+02       1.35733e+01      -3.08091e+00       7.45191e-04       5.56084e+02
  5.000      2.59357e+02       1.35912e+01      -3.05891e+00       7.37332e-04       5.48835e+02
  5.100      2.58711e+02       1.35752e+01      -3.03318e+00       7.29511e-04       5.41662e+02
  5.200      2.58069e+02       1.35366e+01      -3.00955e+00       7.21742e-04       5.34564e+02
  5.300      2.57426e+02       1.34873e+01      -2.99372e+00       7.14038e-04       5.27541e+02
  5.400      2.56779e+02       1.34397e+01      -2.99135e+00       7.06412e-04       5.20593e+02
  5.500      2.56121e+02       1.34057e+01      -3.00812e+00       6.98874e-04       5.13720e+02
  5.600      2.55450e+02       1.33975e+01      -3.04969e+00       6.91437e-04       5.06921e+02
  5.700      2.54760e+02       1.34274e+01      -3.12174e+00       6.84113e-04       5.00197e+02
  5.800      2.54048e+02       1.35050e+01      -3.22866e+00       6.76910e-04       4.93547e+02
  5.900      2.53314e+02       1.36300e+01      -3.36916e+00       6.69823e-04       4.86969e+02
  6.000      2.52559e+02       1.37992e+01      -3.54043e+00       6.62847e-04       4.80460e+02
  6.100      2.51783e+02       1.40094e+01      -3.73965e+00       6.55973e-04       4.74018e+02
  6.200      2.50988e+02       1.42574e+01      -3.96400e+00       6.49196e-04       4.67639e+02
  6.300      2.50175e+02       1.45401e+01      -4.21068e+00       6.42510e-04       4.61323e+02
  6.400      2.49344e+02       1.48542e+01      -4.47685e+00       6.35908e-04       4.55067e+02
  6.500      2.48497e+02       1.51966e+01      -4.75970e+00       6.29385e-04       4.48869e+02
  6.600      2.47635e+02       1.55620e+01      -5.05620e+00       6.22935e-04       4.42727e+02
  6.700      2.46761e+02       1.59403e+01      -5.36279e+00       6.16556e-04       4.36646e+02
  6.800      2.45877e+02       1.63207e+01      -5.67584e+00       6.10243e-04       4.30629e+02
  6.900      2.44988e+02       1.66926e+01      -5.99173e+00       6.03995e-04       4.24678e+02
  7.000      2.44095e+02       1.70452e+01      -6.30683e+00       5.97808e-04       4.18796e+02
  7.100      2.43203e+02       1.73676e+01      -6.61753e+00       5.91678e-04       4.12986e+02
  7.200      2.42313e+02       1.76492e+01      -6.92018e+00       5.85604e-04       4.07251e+02
  7.300      2.41430e+02       1.78791e+01      -7.21118e+00       5.79580e-04       4.01593e+02
  7.400      2.40555e+02       1.80486e+01      -7.48719e+00       5.73605e-04       3.96013e+02
  7.500      2.39688e+02       1.81680e+01      -7.74788e+00       5.67671e-04       3.90504e+02
  7.600      2.38827e+02       1.82585e+01      -7.99463e+00       5.61767e-04       3.85055e+02
  7.700      2.37970e+02       1.83413e+01      -8.22882e+00       5.55886e-04       3.79656e+02
  7.800      2.37114e+02       1.84377e+01      -8.45182e+00       5.50018e-04       3.74296e+02
  7.900      2.36256e+02       1.85689e+01      -8.66501e+00       5.44155e-04       3.68967e+02
  8.000      2.35394e+02       1.87563e+01      -8.86978e+00       5.38290e-04       3.63659e+02
  8.100      2.34526e+02       1.90211e+01      -9.06751e+00       5.32416e-04       3.58364e+02
  8.200      2.33650e+02       1.93846e+01      -9.25957e+00       5.26525e-04       3.53075e+02
  8.300      2.32763e+02       1.98675e+01      -9.44734e+00       5.20613e-04       3.47784e+02
  8.400      2.31866e+02       2.04753e+01      -9.63135e+00       5.14689e-04       3.42502e+02
  8.500      2.30965e+02       2.11944e+01      -9.81118e+00       5.08785e-04       3.37258e+02
  8.600      2.30065e+02       2.20097e+01      -9.98631e+00       5.02931e-04       3.32079e+02
  8.700      2.29174e+02       2.29064e+01      -1.01562e+01       4.97157e-04       3.26994e+02
  8.800      2.28296e+02       2.38697e+01      -1.03205e+01       4.91488e-04       3.22027e+02
  8.900      2.27437e+02       2.48846e+01      -1.04785e+01       4.85951e-04       3.17202e+02
  9.000      2.26604e+02       2.59362e+01      -1.06299e+01       4.80571e-04       3.12540e+02
  9.100      2.25802e+02       2.70098e+01      -1.07740e+01       4.75370e-04       3.08064e+02
  9.200      2.25037e+02       2.80903e+01      -1.09104e+01       4.70371e-04       3.03792e+02
  9.300      2.24315e+02       2.91630e+01      -1.10386e+01       4.65594e-04       2.99742e+02
  9.400      2.23641e+02       3.02147e+01      -1.11580e+01       4.61049e-04       2.95924e+02
  9.500      2.23013e+02       3.12390e+01      -1.12676e+01       4.56710e-04       2.92316e+02
  9.600      2.22429e+02       3.22305e+01      -1.13662e+01       4.52546e-04       2.88892e+02
  9.700      2.21887e+02       3.31838e+01      -1.14529e+01       4.48526e-04       2.85629e+02
  9.800      2.21386e+02       3.40936e+01      -1.15266e+01       4.44620e-04       2.82502e+02
  9.900      2.20924e+02       3.49546e+01      -1.15862e+01       4.40802e-04       2.79491e+02
 10.000      2.20497e+02       3.57614e+01      -1.16305e+01       4.37043e-04       2.76573e+02
 10.100      2.20105e+02       3.65087e+01      -1.16587e+01       4.33318e-04       2.73728e+02
 10.200      2.19745e+02       3.71912e+01      -1.16695e+01       4.29601e-04       2.70936e+02
 10.300      2.19416e+02       3.78036e+01      -1.16619e+01       4.25869e-04       2.68179e+02
 10.400      2.19114e+02       3.83404e+01      -1.16349e+01       4.22097e-04       2.65439e+02
 10.500      2.18839e+02       3.87964e+01      -1.15873e+01       4.18264e-04       2.62698e+02
 10.600      2.18588e+02       3.91662e+01      -1.15181e+01       4.14347e-04       2.59940e+02
 10.700      2.18360e+02       3.94445e+01      -1.14263e+01       4.10327e-04       2.57149e+02
 10.800      2.18152e+02       3.96259e+01      -1.13107e+01       4.06183e-04       2.54309e+02
 10.900      2.17961e+02       3.97052e+01      -1.11703e+01       4.01898e-04       2.51407e+02
 11.000      2.17788e+02       3.96774e+01      -1.10041e+01       3.97455e-04       2.48429e+02
 11.100      2.17628e+02       3.95454e+01      -1.08122e+01       3.92849e-04       2.45371e+02
 11.200      2.17483e+02       3.93196e+01      -1.05962e+01       3.88091e-04       2.42238e+02
 11.300      2.17351e+02       3.90107e+01      -1.03574e+01       3.83190e-04       2.39034e+02
 11.400      2.17232e+02       3.86295e+01      -1.00972e+01       3.78156e-04       2.35763e+02
 11.500      2.17124e+02       3.81864e+01      -9.81721e+00       3.72997e-04       2.32431e+02
 11.600      2.17026e+02       3.76923e+01      -9.51873e+00       3.67724e-04       2.29043e+02
 11.700      2.16939e+02       3.71578e+01      -9.20322e+00       3.62345e-04       2.25601e+02
 11.800      2.16860e+02       3.65936e+01      -8.87213e+00       3.56871e-04       2.22113e+02
 11.900      2.16790e+02       3.60104e+01      -8.52690e+00       3.51310e-04       2.18581e+02
 12.000      2.16727e+02       3.54188e+01      -8.16896e+00       3.45672e-04       2.15010e+02
 12.100      2.16671e+02       3.48295e+01      -7.79975e+00       3.39965e-04       2.11405e+02
 12.200      2.16620e+02       3.42532e+01      -7.42071e+00       3.34198e-04       2.07770e+02
 12.300      2.16574e+02       3.37006e+01      -7.03327e+00       3.28379e-04       2.04110e+02
 12.400      2.16532e+02       3.31823e+01      -6.63888e+00       3.22518e-04       2.00428e+02
 12.500      2.16494e+02       3.27074e+01      -6.23914e+00       3.16624e-04       1.96730e+02
 12.600      2.16458e+02       3.22755e+01      -5.83662e+00       3.10716e-04       1.93027e+02
 12.700      2.16424e+02       3.18828e+01      -5.43426e+00       3.04814e-04       1.89332e+02
 12.800      2.16392e+02       3.15257e+01      -5.03498e+00       2.98939e-04       1.85655e+02
 12.900      2.16361e+02       3.12004e+01      -4.64169e+00       2.93109e-04       1.82008e+02
 13.000      2.16330e+02       3.09032e+01      -4.25731e+00       2.87341e-04       1.78401e+02
 13.100      2.16299e+02       3.06304e+01      -3.88477e+00       2.81650e-04       1.74843e+02
 13.200      2.16268e+02       3.03783e+01      -3.52700e+00       2.76052e-04       1.71342e+02
 13.300      2.16235e+02       3.01432e+01      -3.18690e+00       2.70559e-04       1.67907e+02
 13.400      2.16200e+02       2.99212e+01      -2.86741e+00       2.65183e-04       1.64545e+02
 13.500      2.16163e+02       2.97088e+01      -2.57145e+00       2.59936e-04       1.61261e+02
 13.600      2.16123e+02       2.95022e+01      -2.30193e+00       2.54828e-04       1.58063e+02
 13.700      2.16080e+02       2.92977e+01      -2.06178e+00       2.49868e-04       1.54955e+02
 13.800      2.16032e+02       2.90915e+01      -1.85392e+00       2.45064e-04       1.51943e+02
 13.900      2.15980e+02       2.88800e+01      -1.68125e+00       2.40424e-04       1.49030e+02
 14.000      2.15923e+02       2.86608e+01      -1.54475e+00       2.35947e-04       1.46216e+02
 14.100      2.15862e+02       2.84338e+01      -1.44252e+00       2.31627e-04       1.43498e+02
 14.200      2.15796e+02       2.81987e+01      -1.37239e+00       2.27454e-04       1.40870e+02
 14.300      2.15726e+02       2.79555e+01      -1.33222e+00       2.23421e-04       1.38327e+02
 14.400      2.15652e+02       2.77042e+01      -1.31984e+00       2.19519e-04       1.35865e+02
 14.500      2.15574e+02       2.74446e+01      -1.33309e+00       2.15741e-04       1.33479e+02
 14.600      2.15494e+02       2.71767e+01      -1.36983e+00       2.12082e-04       1.31166e+02
 14.700      2.15410e+02       2.69004e+01      -1.42789e+00       2.08533e-04       1.28921e+02
 14.800      2.15324e+02       2.66156e+01      -1.50512e+00       2.05089e-04       1.26741e+02
 14.900      2.15235e+02       2.63223e+01      -1.59935e+00       2.01744e-04       1.24622e+02
 15.000      2.15144e+02       2.60204e+01      -1.70844e+00       1.98492e-04       1.22562e+02
 15.100      2.15051e+02       2.57097e+01      -1.83021e+00       1.95328e-04       1.20556e+02
 15.200      2.14956e+02       2.53902e+01      -1.96253e+00       1.92247e-04       1.18602e+02
 15.300      2.14860e+02       2.50619e+01      -2.10322e+00       1.89245e-04       1.16698e+02
 15.400      2.14763e+02       2.47246e+01      -2.25014e+00       1.86315e-04       1.14839e+02
 15.500      2.14665e+02       2.43783e+01      -2.40112e+00       1.83455e-04       1.13025e+02
 15.600      2.14567e+02       2.40228e+01      -2.55401e+00       1.80660e-04       1.11251e+02
 15.700      2.14468e+02       2.36582e+01      -2.70665e+00       1.77925e-04       1.09517e+02
 15.800      2.14369e+02       2.32843e+01      -2.85688e+00       1.75248e-04       1.07819e+02
 15.900      2.14270e+02       2.29011e+01      -3.00255e+00       1.72624e-04       1.06156e+02
 16.000      2.14172e+02       2.25084e+01      -3.14149e+00       1.70050e-04       1.04525e+02
 16.100      2.14075e+02       2.21062e+01      -3.27156e+00       1.67523e-04       1.02925e+02
 16.200      2.13978e+02       2.16945e+01      -3.39059e+00       1.65040e-04       1.01354e+02
 16.300      2.13883e+02       2.12730e+01      -3.49643e+00       1.62598e-04       9.98096e+01
 16.400      2.13790e+02       2.08420e+01      -3.58760e+00       1.60193e-04       9.82906e+01
 16.500      2.13698e+02       2.04019e+01      -3.66449e+00       1.57825e-04       9.67962e+01
 16.600      2.13609e+02       1.99533e+01      -3.72781e+00       1.55492e-04       9.53255e+01
 16.700      2.13522e+02       1.94967e+01      -3.77828e+00       1.53193e-04       9.38777e+01
 16.800      2.13437e+02       1.90328e+01      -3.81661e+00       1.50926e-04       9.24522e+01
 16.900      2.13356e+02       1.85620e+01      -3.84351e+00       1.48690e-04       9.10481e+01
 17.000      2.13279e+02       1.80850e+01      -3.85970e+00       1.46485e-04       8.96647e+01
 17.100      2.13205e+02       1.76024e+01      -3.86589e+00       1.44307e-04       8.83014e+01
 17.200      2.13135e+02       1.71147e+01      -3.86279e+00       1.42158e-04       8.69575e+01
 17.300      2.13069e+02       1.66224e+01      -3.85113e+00       1.40035e-04       8.56325e+01
 17.400      2.13008e+02       1.61262e+01      -3.83160e+00       1.37937e-04       8.43258e+01
 17.500      2.12952e+02       1.56266e+01      -3.80493e+00       1.35864e-04       8.30367e+01
 17.600      2.12901e+02       1.51242e+01      -3.77182e+00       1.33815e-04       8.17647e+01
 17.700      2.12856e+02       1.46196e+01      -3.73300e+00       1.31789e-04       8.05094e+01
 17.800      2.12817e+02       1.41133e+01      -3.68918e+00       1.29784e-04       7.92701e+01
 17.900      2.12783e+02       1.36059e+01      -3.64106e+00       1.27801e-04       7.80465e+01
 18.000      2.12757e+02       1.30981e+01      -3.58936e+00       1.25838e-04       7.68381e+01
 18.100      2.12737e+02       1.25902e+01      -3.53480e+00       1.23895e-04       7.56444e+01
 18.200      2.12723e+02       1.20830e+01      -3.47809e+00       1.21971e-04       7.44651e+01
 18.300      2.12718e+02       1.15770e+01      -3.41994e+00       1.20065e-04       7.32996e+01
 18.400      2.12720e+02       1.10727e+01      -3.36107e+00       1.18177e-04       7.21478e+01
 18.500      2.12730e+02       1.05708e+01      -3.30219e+00       1.16306e-04       7.10091e+01
 18.600      2.12748e+02       1.00718e+01      -3.24401e+00       1.14453e-04       6.98832e+01
 18.700      2.12775e+02       9.57623e+00      -3.18704e+00       1.12615e-04       6.87701e+01
 18.800      2.12809e+02       9.08465e+00      -3.13120e+00       1.10796e-04       6.76699e+01
 18.900      2.12851e+02       8.59752e+00      -3.07630e+00       1.08995e-04       6.65832e+01
 19.000      2.12899e+02       8.11533e+00      -3.02213e+00       1.07214e-04       6.55102e+01
 19.100      2.12954e+02       7.63858e+00      -2.96850e+00       1.05455e-04       6.44514e+01
 19.200      2.13013e+02       7.16775e+00      -2.91521e+00       1.03717e-04       6.34070e+01
 19.300      2.13078e+02       6.70335e+00      -2.86209e+00       1.02001e-04       6.23772e+01
 19.400      2.13147e+02       6.24584e+00      -2.80891e+00       1.00309e-04       6.13624e+01
 19.500      2.13219e+02       5.79574e+00      -2.75550e+00       9.86418e-05       6.03628e+01
 19.600      2.13294e+02       5.35352e+00      -2.70166e+00       9.69991e-05       5.93785e+01
 19.700      2.13372e+02       4.91968e+00      -2.64719e+00       9.53819e-05       5.84098e+01
 19.800      2.13451e+02       4.49472e+00      -2.59190e+00       9.37908e-05       5.74568e+01
 19.900      2.13532e+02       4.07912e+00      -2.53558e+00       9.22262e-05       5.65196e+01
 20.000      2.13613e+02       3.67336e+00      -2.47806e+00       9.06885e-05       5.55983e+01
 20.100      2.13694e+02       3.27795e+00      -2.41913e+00       8.91782e-05       5.46930e+01
 20.200      2.13774e+02       2.89337e+00      -2.35859e+00       8.76955e-05       5.38039e+01
 20.300      2.13852e+02       2.52012e+00      -2.29626e+00       8.62409e-05       5.29309e+01
