# Data Source: NASA GEOS5 Near-Real-Time
# Model Time = 2010-10-23 18:00:00
# Location = [  39.7393, -104.9900 ]
# Fields = [ Z(km), T(K), U(m/s), V(m/s), R(g/cm3), P(mbar) ]
# Ground Height = 1.589
  0.000      2.97468e+02       1.64010e+00      -2.46115e+00       1.17715e-03       1.00497e+03
  0.100      2.96825e+02       1.63132e+00      -2.51725e+00       1.16590e-03       9.93219e+02
  0.200      2.96176e+02       1.61721e+00      -2.55414e+00       1.15479e-03       9.81602e+02
  0.300      2.95510e+02       1.58881e+00      -2.53987e+00       1.14385e-03       9.70117e+02
  0.400      2.94828e+02       1.54631e+00      -2.48489e+00       1.13307e-03       9.58758e+02
  0.500      2.94150e+02       1.50093e+00      -2.45081e+00       1.12238e-03       9.47521e+02
  0.600      2.93483e+02       1.46113e+00      -2.46887e+00       1.11172e-03       9.36401e+02
  0.700      2.92821e+02       1.42821e+00      -2.50003e+00       1.10115e-03       9.25401e+02
  0.800      2.92157e+02       1.40279e+00      -2.50761e+00       1.09068e-03       9.14521e+02
  0.900      2.91497e+02       1.38649e+00      -2.50517e+00       1.08028e-03       9.03759e+02
  1.000      2.90852e+02       1.37975e+00      -2.51724e+00       1.06992e-03       8.93110e+02
  1.100      2.90230e+02       1.36447e+00      -2.53120e+00       1.05956e-03       8.82575e+02
  1.200      2.89639e+02       1.31035e+00      -2.50957e+00       1.04919e-03       8.72155e+02
  1.300      2.89065e+02       1.22074e+00      -2.44596e+00       1.03886e-03       8.61852e+02
  1.400      2.88458e+02       1.16062e+00      -2.39138e+00       1.02874e-03       8.51664e+02
  1.500      2.87774e+02       1.19127e+00      -2.39368e+00       1.01899e-03       8.41592e+02
  1.600      2.87026e+02       1.30650e+00      -2.43944e+00       1.00955e-03       8.31629e+02
  1.700      2.86250e+02       1.47298e+00      -2.49074e+00       1.00029e-03       8.21773e+02
  1.800      2.85470e+02       1.67048e+00      -2.53075e+00       9.91112e-04       8.12017e+02
  1.900      2.84683e+02       1.89935e+00      -2.57578e+00       9.82025e-04       8.02353e+02
  2.000      2.83885e+02       2.16038e+00      -2.64203e+00       9.73030e-04       7.92776e+02
  2.100      2.83075e+02       2.44242e+00      -2.71969e+00       9.64132e-04       7.83285e+02
  2.200      2.82253e+02       2.72822e+00      -2.78576e+00       9.55337e-04       7.73887e+02
  2.300      2.81421e+02       3.01121e+00      -2.82891e+00       9.46643e-04       7.64584e+02
  2.400      2.80584e+02       3.31484e+00      -2.87086e+00       9.38029e-04       7.55372e+02
  2.500      2.79746e+02       3.66729e+00      -2.93884e+00       9.29471e-04       7.46245e+02
  2.600      2.78905e+02       4.07861e+00      -3.05052e+00       9.20974e-04       7.37201e+02
  2.700      2.78049e+02       4.53602e+00      -3.21155e+00       9.12582e-04       7.28241e+02
  2.800      2.77165e+02       5.02445e+00      -3.42602e+00       9.04336e-04       7.19367e+02
  2.900      2.76255e+02       5.51770e+00      -3.68714e+00       8.96227e-04       7.10575e+02
  3.000      2.75329e+02       5.98177e+00      -3.98054e+00       8.88214e-04       7.01862e+02
  3.100      2.74399e+02       6.38617e+00      -4.29338e+00       8.80255e-04       6.93223e+02
  3.200      2.73482e+02       6.72880e+00      -4.62602e+00       8.72298e-04       6.84661e+02
  3.300      2.72595e+02       7.02081e+00      -4.98497e+00       8.64294e-04       6.76178e+02
  3.400      2.71755e+02       7.27251e+00      -5.37414e+00       8.56196e-04       6.67779e+02
  3.500      2.70966e+02       7.48863e+00      -5.78132e+00       8.47997e-04       6.59463e+02
  3.600      2.70225e+02       7.67179e+00      -6.18822e+00       8.39704e-04       6.51228e+02
  3.700      2.69529e+02       7.82408e+00      -6.57831e+00       8.31329e-04       6.43072e+02
  3.800      2.68861e+02       7.94436e+00      -6.94612e+00       8.22926e-04       6.34995e+02
  3.900      2.68200e+02       8.03023e+00      -7.29055e+00       8.14565e-04       6.26998e+02
  4.000      2.67527e+02       8.08021e+00      -7.61153e+00       8.06302e-04       6.19082e+02
  4.100      2.66854e+02       8.10094e+00      -7.91842e+00       7.98107e-04       6.11246e+02
  4.200      2.66204e+02       8.10327e+00      -8.22541e+00       7.89903e-04       6.03491e+02
  4.300      2.65603e+02       8.09771e+00      -8.54562e+00       7.81622e-04       5.95815e+02
  4.400      2.65045e+02       8.08804e+00      -8.87136e+00       7.73279e-04       5.88217e+02
  4.500      2.64504e+02       8.07204e+00      -9.17654e+00       7.64958e-04       5.80701e+02
  4.600      2.63953e+02       8.04731e+00      -9.43447e+00       7.56743e-04       5.73266e+02
  4.700      2.63373e+02       8.01270e+00      -9.62910e+00       7.48680e-04       5.65912e+02
  4.800      2.62773e+02       7.96960e+00      -9.76585e+00       7.40745e-04       5.58638e+02
  4.900      2.62162e+02       7.91972e+00      -9.85276e+00       7.32905e-04       5.51441e+02
  5.000      2.61549e+02       7.86461e+00      -9.89742e+00       7.25134e-04       5.44318e+02
  5.100      2.60933e+02       7.80470e+00      -9.90421e+00       7.17431e-04       5.37269e+02
  5.200      2.60311e+02       7.73992e+00      -9.87607e+00       7.09810e-04       5.30295e+02
  5.300      2.59678e+02       7.67020e+00      -9.81594e+00       7.02283e-04       5.23394e+02
  5.400      2.59031e+02       7.59771e+00      -9.72967e+00       6.94855e-04       5.16567e+02
  5.500      2.58371e+02       7.52914e+00      -9.62899e+00       6.87519e-04       5.09813e+02
  5.600      2.57701e+02       7.47173e+00      -9.52636e+00       6.80269e-04       5.03129e+02
  5.700      2.57023e+02       7.43247e+00      -9.43395e+00       6.73097e-04       4.96514e+02
  5.800      2.56338e+02       7.41398e+00      -9.35806e+00       6.65998e-04       4.89968e+02
  5.900      2.55646e+02       7.41474e+00      -9.29956e+00       6.58972e-04       4.83490e+02
  6.000      2.54948e+02       7.43307e+00      -9.25913e+00       6.52018e-04       4.77082e+02
  6.100      2.54244e+02       7.46685e+00      -9.23696e+00       6.45135e-04       4.70742e+02
  6.200      2.53535e+02       7.50872e+00      -9.22800e+00       6.38321e-04       4.64471e+02
  6.300      2.52821e+02       7.54801e+00      -9.22388e+00       6.31575e-04       4.58268e+02
  6.400      2.52101e+02       7.57398e+00      -9.21614e+00       6.24896e-04       4.52131e+02
  6.500      2.51376e+02       7.57656e+00      -9.19664e+00       6.18283e-04       4.46059e+02
  6.600      2.50646e+02       7.55377e+00      -9.16076e+00       6.11731e-04       4.40051e+02
  6.700      2.49913e+02       7.50911e+00      -9.10629e+00       6.05237e-04       4.34107e+02
  6.800      2.49180e+02       7.44617e+00      -9.03104e+00       5.98794e-04       4.28225e+02
  6.900      2.48446e+02       7.36845e+00      -8.93293e+00       5.92399e-04       4.22404e+02
  7.000      2.47712e+02       7.27660e+00      -8.81260e+00       5.86052e-04       4.16643e+02
  7.100      2.46975e+02       7.16804e+00      -8.67384e+00       5.79759e-04       4.10944e+02
  7.200      2.46234e+02       7.03998e+00      -8.52064e+00       5.73526e-04       4.05306e+02
  7.300      2.45486e+02       6.88965e+00      -8.35695e+00       5.67358e-04       3.99730e+02
  7.400      2.44730e+02       6.71725e+00      -8.18650e+00       5.61260e-04       3.94215e+02
  7.500      2.43965e+02       6.53324e+00      -8.01211e+00       5.55230e-04       3.88761e+02
  7.600      2.43193e+02       6.35028e+00      -7.83643e+00       5.49264e-04       3.83366e+02
  7.700      2.42413e+02       6.18104e+00      -7.66210e+00       5.43360e-04       3.78028e+02
  7.800      2.41625e+02       6.03798e+00      -7.49176e+00       5.37515e-04       3.72747e+02
  7.900      2.40831e+02       5.92693e+00      -7.32823e+00       5.31728e-04       3.67522e+02
  8.000      2.40029e+02       5.84563e+00      -7.17451e+00       5.26001e-04       3.62353e+02
  8.100      2.39218e+02       5.79135e+00      -7.03364e+00       5.20335e-04       3.57238e+02
  8.200      2.38397e+02       5.76137e+00      -6.90864e+00       5.14732e-04       3.52179e+02
  8.300      2.37567e+02       5.75273e+00      -6.80257e+00       5.09192e-04       3.47175e+02
  8.400      2.36726e+02       5.75837e+00      -6.71920e+00       5.03716e-04       3.42226e+02
  8.500      2.35875e+02       5.76777e+00      -6.66286e+00       4.98299e-04       3.37330e+02
  8.600      2.35017e+02       5.77032e+00      -6.63792e+00       4.92940e-04       3.32487e+02
  8.700      2.34150e+02       5.75538e+00      -6.64873e+00       4.87636e-04       3.27697e+02
  8.800      2.33277e+02       5.71254e+00      -6.69964e+00       4.82384e-04       3.22958e+02
  8.900      2.32397e+02       5.63769e+00      -6.79471e+00       4.77184e-04       3.18271e+02
  9.000      2.31509e+02       5.53423e+00      -6.93765e+00       4.72034e-04       3.13634e+02
  9.100      2.30614e+02       5.40602e+00      -7.13212e+00       4.66936e-04       3.09048e+02
  9.200      2.29711e+02       5.25694e+00      -7.38182e+00       4.61890e-04       3.04511e+02
  9.300      2.28800e+02       5.09083e+00      -7.69042e+00       4.56897e-04       3.00024e+02
  9.400      2.27881e+02       4.91262e+00      -8.05709e+00       4.51952e-04       2.95585e+02
  9.500      2.26964e+02       4.73159e+00      -8.46272e+00       4.47039e-04       2.91195e+02
  9.600      2.26058e+02       4.55812e+00      -8.88350e+00       4.42138e-04       2.86853e+02
  9.700      2.25174e+02       4.40257e+00      -9.29567e+00       4.37230e-04       2.82559e+02
  9.800      2.24323e+02       4.27532e+00      -9.67545e+00       4.32295e-04       2.78314e+02
  9.900      2.23514e+02       4.18675e+00      -9.99905e+00       4.27315e-04       2.74116e+02
 10.000      2.22759e+02       4.14622e+00      -1.02455e+01       4.22271e-04       2.69966e+02
 10.100      2.22072e+02       4.16097e+00      -1.03999e+01       4.17145e-04       2.65866e+02
 10.200      2.21465e+02       4.23796e+00      -1.04481e+01       4.11918e-04       2.61817e+02
 10.300      2.20952e+02       4.38413e+00      -1.03760e+01       4.06571e-04       2.57820e+02
 10.400      2.20547e+02       4.60644e+00      -1.01693e+01       4.01089e-04       2.53877e+02
 10.500      2.20262e+02       4.91185e+00      -9.81406e+00       3.95456e-04       2.49989e+02
 10.600      2.20107e+02       5.30216e+00      -9.30353e+00       3.89668e-04       2.46156e+02
 10.700      2.20069e+02       5.75874e+00      -8.66094e+00       3.83758e-04       2.42380e+02
 10.800      2.20131e+02       6.25795e+00      -7.91682e+00       3.77763e-04       2.38661e+02
 10.900      2.20276e+02       6.77609e+00      -7.10177e+00       3.71722e-04       2.35000e+02
 11.000      2.20489e+02       7.28950e+00      -6.24631e+00       3.65671e-04       2.31397e+02
 11.100      2.20750e+02       7.77451e+00      -5.38102e+00       3.59643e-04       2.27853e+02
 11.200      2.21044e+02       8.20747e+00      -4.53645e+00       3.53670e-04       2.24367e+02
 11.300      2.21356e+02       8.57331e+00      -3.73398e+00       3.47778e-04       2.20940e+02
 11.400      2.21671e+02       8.87698e+00      -2.97373e+00       3.41988e-04       2.17571e+02
 11.500      2.21977e+02       9.12632e+00      -2.25271e+00       3.36315e-04       2.14258e+02
 11.600      2.22263e+02       9.32915e+00      -1.56796e+00       3.30775e-04       2.10999e+02
 11.700      2.22515e+02       9.49328e+00      -9.16529e-01       3.25382e-04       2.07795e+02
 11.800      2.22721e+02       9.62656e+00      -2.95435e-01       3.20150e-04       2.04643e+02
 11.900      2.22868e+02       9.73680e+00       2.98272e-01       3.15090e-04       2.01542e+02
 12.000      2.22945e+02       9.83166e+00       8.67498e-01       3.10213e-04       1.98491e+02
 12.100      2.22949e+02       9.91494e+00       1.41345e+00       3.05516e-04       1.95489e+02
 12.200      2.22886e+02       9.98653e+00       1.93566e+00       3.00982e-04       1.92533e+02
 12.300      2.22763e+02       1.00461e+01       2.43357e+00       2.96595e-04       1.89622e+02
 12.400      2.22588e+02       1.00935e+01       2.90664e+00       2.92338e-04       1.86753e+02
 12.500      2.22368e+02       1.01284e+01       3.35431e+00       2.88197e-04       1.83926e+02
 12.600      2.22109e+02       1.01504e+01       3.77604e+00       2.84158e-04       1.81137e+02
 12.700      2.21820e+02       1.01594e+01       4.17128e+00       2.80208e-04       1.78386e+02
 12.800      2.21506e+02       1.01550e+01       4.53947e+00       2.76333e-04       1.75671e+02
 12.900      2.21176e+02       1.01373e+01       4.88019e+00       2.72524e-04       1.72991e+02
 13.000      2.20835e+02       1.01099e+01       5.19396e+00       2.68770e-04       1.70345e+02
 13.100      2.20489e+02       1.00778e+01       5.48183e+00       2.65066e-04       1.67735e+02
 13.200      2.20145e+02       1.00463e+01       5.74482e+00       2.61405e-04       1.65160e+02
 13.300      2.19807e+02       1.00206e+01       5.98400e+00       2.57782e-04       1.62621e+02
 13.400      2.19483e+02       1.00058e+01       6.20039e+00       2.54191e-04       1.60119e+02
 13.500      2.19178e+02       1.00072e+01       6.39504e+00       2.50626e-04       1.57654e+02
 13.600      2.18898e+02       1.00300e+01       6.56899e+00       2.47081e-04       1.55226e+02
 13.700      2.18648e+02       1.00793e+01       6.72327e+00       2.43554e-04       1.52835e+02
 13.800      2.18436e+02       1.01603e+01       6.85894e+00       2.40038e-04       1.50482e+02
 13.900      2.18265e+02       1.02773e+01       6.97685e+00       2.36530e-04       1.48167e+02
 14.000      2.18132e+02       1.04280e+01       7.07648e+00       2.33035e-04       1.45889e+02
 14.100      2.18031e+02       1.06068e+01       7.15670e+00       2.29557e-04       1.43645e+02
 14.200      2.17956e+02       1.08083e+01       7.21634e+00       2.26104e-04       1.41435e+02
 14.300      2.17899e+02       1.10269e+01       7.25427e+00       2.22680e-04       1.39258e+02
 14.400      2.17854e+02       1.12572e+01       7.26934e+00       2.19292e-04       1.37110e+02
 14.500      2.17814e+02       1.14937e+01       7.26041e+00       2.15944e-04       1.34992e+02
 14.600      2.17773e+02       1.17309e+01       7.22631e+00       2.12641e-04       1.32902e+02
 14.700      2.17723e+02       1.19633e+01       7.16592e+00       2.09387e-04       1.30839e+02
 14.800      2.17659e+02       1.21854e+01       7.07807e+00       2.06188e-04       1.28802e+02
 14.900      2.17573e+02       1.23917e+01       6.96163e+00       2.03046e-04       1.26789e+02
 15.000      2.17459e+02       1.25767e+01       6.81545e+00       1.99965e-04       1.24799e+02
 15.100      2.17312e+02       1.27363e+01       6.63948e+00       1.96947e-04       1.22833e+02
 15.200      2.17134e+02       1.28708e+01       6.43694e+00       1.93991e-04       1.20891e+02
 15.300      2.16929e+02       1.29811e+01       6.21164e+00       1.91095e-04       1.18973e+02
 15.400      2.16699e+02       1.30682e+01       5.96740e+00       1.88257e-04       1.17082e+02
 15.500      2.16448e+02       1.31330e+01       5.70805e+00       1.85475e-04       1.15218e+02
 15.600      2.16179e+02       1.31764e+01       5.43738e+00       1.82747e-04       1.13382e+02
 15.700      2.15894e+02       1.31995e+01       5.15923e+00       1.80071e-04       1.11575e+02
 15.800      2.15598e+02       1.32031e+01       4.87740e+00       1.77446e-04       1.09797e+02
 15.900      2.15293e+02       1.31883e+01       4.59571e+00       1.74869e-04       1.08050e+02
 16.000      2.14982e+02       1.31560e+01       4.31798e+00       1.72340e-04       1.06333e+02
 16.100      2.14669e+02       1.31072e+01       4.04803e+00       1.69856e-04       1.04648e+02
 16.200      2.14356e+02       1.30428e+01       3.78967e+00       1.67416e-04       1.02995e+02
 16.300      2.14047e+02       1.29637e+01       3.54672e+00       1.65019e-04       1.01374e+02
 16.400      2.13745e+02       1.28710e+01       3.32298e+00       1.62663e-04       9.97854e+01
 16.500      2.13453e+02       1.27655e+01       3.12111e+00       1.60346e-04       9.82295e+01
 16.600      2.13170e+02       1.26479e+01       2.94059e+00       1.58066e-04       9.67047e+01
 16.700      2.12897e+02       1.25186e+01       2.78039e+00       1.55822e-04       9.52095e+01
 16.800      2.12633e+02       1.23784e+01       2.63949e+00       1.53612e-04       9.37425e+01
 16.900      2.12379e+02       1.22278e+01       2.51686e+00       1.51433e-04       9.23022e+01
 17.000      2.12134e+02       1.20674e+01       2.41147e+00       1.49283e-04       9.08873e+01
 17.100      2.11899e+02       1.18977e+01       2.32229e+00       1.47162e-04       8.94966e+01
 17.200      2.11673e+02       1.17195e+01       2.24829e+00       1.45068e-04       8.81289e+01
 17.300      2.11457e+02       1.15332e+01       2.18846e+00       1.42998e-04       8.67829e+01
 17.400      2.11250e+02       1.13394e+01       2.14175e+00       1.40952e-04       8.54576e+01
 17.500      2.11053e+02       1.11388e+01       2.10714e+00       1.38928e-04       8.41519e+01
 17.600      2.10865e+02       1.09320e+01       2.08361e+00       1.36925e-04       8.28648e+01
 17.700      2.10686e+02       1.07194e+01       2.07012e+00       1.34942e-04       8.15954e+01
 17.800      2.10517e+02       1.05018e+01       2.06565e+00       1.32977e-04       8.03428e+01
 17.900      2.10357e+02       1.02797e+01       2.06917e+00       1.31030e-04       7.91060e+01
 18.000      2.10206e+02       1.00537e+01       2.07965e+00       1.29099e-04       7.78844e+01
 18.100      2.10065e+02       9.82433e+00       2.09607e+00       1.27183e-04       7.66770e+01
 18.200      2.09933e+02       9.59226e+00       2.11739e+00       1.25282e-04       7.54832e+01
 18.300      2.09810e+02       9.35806e+00       2.14259e+00       1.23394e-04       7.43023e+01
 18.400      2.09696e+02       9.12231e+00       2.17064e+00       1.21519e-04       7.31337e+01
 18.500      2.09592e+02       8.88560e+00       2.20051e+00       1.19656e-04       7.19765e+01
 18.600      2.09497e+02       8.64853e+00       2.23118e+00       1.17804e-04       7.08304e+01
 18.700      2.09410e+02       8.41169e+00       2.26162e+00       1.15963e-04       6.96948e+01
 18.800      2.09333e+02       8.17577e+00       2.29115e+00       1.14133e-04       6.85696e+01
 18.900      2.09265e+02       7.94169e+00       2.31969e+00       1.12315e-04       6.74555e+01
 19.000      2.09207e+02       7.71036e+00       2.34726e+00       1.10510e-04       6.63531e+01
 19.100      2.09158e+02       7.48273e+00       2.37385e+00       1.08721e-04       6.52632e+01
 19.200      2.09118e+02       7.25971e+00       2.39948e+00       1.06947e-04       6.41864e+01
 19.300      2.09088e+02       7.04224e+00       2.42414e+00       1.05191e-04       6.31233e+01
 19.400      2.09068e+02       6.83124e+00       2.44783e+00       1.03453e-04       6.20744e+01
 19.500      2.09057e+02       6.62765e+00       2.47057e+00       1.01735e-04       6.10402e+01
 19.600      2.09057e+02       6.43238e+00       2.49235e+00       1.00037e-04       6.00212e+01
 19.700      2.09066e+02       6.24637e+00       2.51318e+00       9.83600e-05       5.90178e+01
 19.800      2.09085e+02       6.07055e+00       2.53305e+00       9.67053e-05       5.80304e+01
 19.900      2.09115e+02       5.90585e+00       2.55198e+00       9.50736e-05       5.70593e+01
 20.000      2.09154e+02       5.75318e+00       2.56997e+00       9.34654e-05       5.61047e+01
 20.100      2.09204e+02       5.61349e+00       2.58702e+00       9.18814e-05       5.51671e+01
 20.200      2.09265e+02       5.48769e+00       2.60313e+00       9.03221e-05       5.42465e+01
 20.300      2.09336e+02       5.37672e+00       2.61831e+00       8.87881e-05       5.33433e+01
