# Data Source: NASA GEOS5 Near-Real-Time
# Model Time = 2010-04-18 18:00:00
# Location = [  39.7393, -104.9900 ]
# Fields = [ Z(km), T(K), U(m/s), V(m/s), R(g/cm3), P(mbar) ]
# Ground Height = 1.589
  0.000      2.98378e+02      -1.06468e-01       5.20301e-01       1.18473e-03       1.01454e+03
  0.100      2.97738e+02      -1.07081e-01       5.09239e-01       1.17339e-03       1.00267e+03
  0.200      2.97097e+02      -1.04723e-01       4.96060e-01       1.16217e-03       9.90947e+02
  0.300      2.96458e+02      -1.12488e-01       4.90093e-01       1.15105e-03       9.79356e+02
  0.400      2.95822e+02      -1.41584e-01       5.00096e-01       1.14003e-03       9.67895e+02
  0.500      2.95188e+02      -1.77283e-01       5.26968e-01       1.12910e-03       9.56560e+02
  0.600      2.94556e+02      -1.86901e-01       5.65931e-01       1.11826e-03       9.45346e+02
  0.700      2.93916e+02      -1.70041e-01       6.13795e-01       1.10754e-03       9.34250e+02
  0.800      2.93256e+02      -1.66967e-01       6.69484e-01       1.09699e-03       9.23272e+02
  0.900      2.92572e+02      -1.99682e-01       7.24572e-01       1.08662e-03       9.12413e+02
  1.000      2.91889e+02      -2.37903e-01       7.51826e-01       1.07634e-03       9.01676e+02
  1.100      2.91234e+02      -2.49444e-01       7.26464e-01       1.06607e-03       8.91060e+02
  1.200      2.90600e+02      -2.41939e-01       6.58266e-01       1.05581e-03       8.80566e+02
  1.300      2.89972e+02      -2.38300e-01       5.70220e-01       1.04562e-03       8.70188e+02
  1.400      2.89336e+02      -2.46944e-01       4.71466e-01       1.03556e-03       8.59923e+02
  1.500      2.88685e+02      -2.60376e-01       3.55932e-01       1.02564e-03       8.49771e+02
  1.600      2.88010e+02      -2.71165e-01       2.13641e-01       1.01590e-03       8.39729e+02
  1.700      2.87304e+02      -2.75165e-01       2.29021e-02       1.00634e-03       8.29793e+02
  1.800      2.86558e+02      -2.69053e-01      -2.39444e-01       9.97009e-04       8.19961e+02
  1.900      2.85781e+02      -2.50726e-01      -5.69214e-01       9.87853e-04       8.10228e+02
  2.000      2.84994e+02      -2.19254e-01      -9.35848e-01       9.78797e-04       8.00590e+02
  2.100      2.84214e+02      -1.72920e-01      -1.30508e+00       9.69782e-04       7.91046e+02
  2.200      2.83425e+02      -1.05979e-01      -1.62999e+00       9.60862e-04       7.81594e+02
  2.300      2.82601e+02      -1.14558e-02      -1.86031e+00       9.52123e-04       7.72233e+02
  2.400      2.81736e+02       1.19480e-01      -1.98268e+00       9.43579e-04       7.62962e+02
  2.500      2.80859e+02       2.98825e-01      -2.04683e+00       9.35128e-04       7.53775e+02
  2.600      2.80001e+02       5.38203e-01      -2.10629e+00       9.26665e-04       7.44671e+02
  2.700      2.79164e+02       8.38473e-01      -2.17639e+00       9.18181e-04       7.35647e+02
  2.800      2.78329e+02       1.19190e+00      -2.24200e+00       9.09743e-04       7.26708e+02
  2.900      2.77481e+02       1.59069e+00      -2.28934e+00       9.01408e-04       7.17856e+02
  3.000      2.76621e+02       2.02841e+00      -2.32055e+00       8.93168e-04       7.09089e+02
  3.100      2.75759e+02       2.49919e+00      -2.34471e+00       8.84987e-04       7.00404e+02
  3.200      2.74902e+02       2.99825e+00      -2.36892e+00       8.76839e-04       6.91798e+02
  3.300      2.74048e+02       3.52568e+00      -2.39076e+00       8.68730e-04       6.83271e+02
  3.400      2.73192e+02       4.08300e+00      -2.40509e+00       8.60678e-04       6.74825e+02
  3.500      2.72333e+02       4.66945e+00      -2.41075e+00       8.52689e-04       6.66458e+02
  3.600      2.71477e+02       5.27572e+00      -2.42148e+00       8.44740e-04       6.58171e+02
  3.700      2.70635e+02       5.89052e+00      -2.45452e+00       8.36797e-04       6.49960e+02
  3.800      2.69815e+02       6.50315e+00      -2.52636e+00       8.28837e-04       6.41825e+02
  3.900      2.69016e+02       7.10542e+00      -2.65042e+00       8.20858e-04       6.33765e+02
  4.000      2.68240e+02       7.68977e+00      -2.83938e+00       8.12862e-04       6.25782e+02
  4.100      2.67487e+02       8.24895e+00      -3.10127e+00       8.04853e-04       6.17875e+02
  4.200      2.66758e+02       8.77762e+00      -3.41901e+00       7.96826e-04       6.10047e+02
  4.300      2.66059e+02       9.27108e+00      -3.76712e+00       7.88773e-04       6.02298e+02
  4.400      2.65391e+02       9.72255e+00      -4.12121e+00       7.80691e-04       5.94631e+02
  4.500      2.64745e+02       1.01042e+01      -4.46815e+00       7.72611e-04       5.87044e+02
  4.600      2.64103e+02       1.03759e+01      -4.80141e+00       7.64583e-04       5.79535e+02
  4.700      2.63447e+02       1.04979e+01      -5.11472e+00       7.56656e-04       5.72103e+02
  4.800      2.62771e+02       1.04604e+01      -5.40861e+00       7.48849e-04       5.64746e+02
  4.900      2.62079e+02       1.02928e+01      -5.69265e+00       7.41143e-04       5.57463e+02
  5.000      2.61378e+02       1.00275e+01      -5.97707e+00       7.33517e-04       5.50253e+02
  5.100      2.60675e+02       9.69729e+00      -6.26734e+00       7.25957e-04       5.43115e+02
  5.200      2.59967e+02       9.33726e+00      -6.54797e+00       7.18463e-04       5.36049e+02
  5.300      2.59254e+02       8.98317e+00      -6.79764e+00       7.11041e-04       5.29056e+02
  5.400      2.58533e+02       8.67038e+00      -6.99535e+00       7.03697e-04       5.22136e+02
  5.500      2.57802e+02       8.42046e+00      -7.13118e+00       6.96439e-04       5.15289e+02
  5.600      2.57057e+02       8.23782e+00      -7.20911e+00       6.89272e-04       5.08513e+02
  5.700      2.56295e+02       8.12576e+00      -7.23399e+00       6.82206e-04       5.01807e+02
  5.800      2.55512e+02       8.08768e+00      -7.21053e+00       6.75245e-04       4.95171e+02
  5.900      2.54710e+02       8.12782e+00      -7.14235e+00       6.68387e-04       4.88603e+02
  6.000      2.53889e+02       8.25087e+00      -7.03242e+00       6.61625e-04       4.82101e+02
  6.100      2.53053e+02       8.46152e+00      -6.88373e+00       6.54951e-04       4.75665e+02
  6.200      2.52202e+02       8.76092e+00      -6.69966e+00       6.48357e-04       4.69293e+02
  6.300      2.51339e+02       9.13073e+00      -6.48564e+00       6.41838e-04       4.62985e+02
  6.400      2.50466e+02       9.54600e+00      -6.24786e+00       6.35386e-04       4.56739e+02
  6.500      2.49586e+02       9.98177e+00      -5.99250e+00       6.28995e-04       4.50556e+02
  6.600      2.48700e+02       1.04161e+01      -5.72701e+00       6.22660e-04       4.44435e+02
  6.700      2.47810e+02       1.08426e+01      -5.46560e+00       6.16375e-04       4.38375e+02
  6.800      2.46918e+02       1.12604e+01      -5.22470e+00       6.10138e-04       4.32377e+02
  6.900      2.46025e+02       1.16682e+01      -5.02074e+00       6.03944e-04       4.26440e+02
  7.000      2.45133e+02       1.20641e+01      -4.86852e+00       5.97789e-04       4.20563e+02
  7.100      2.44244e+02       1.24398e+01      -4.76899e+00       5.91666e-04       4.14747e+02
  7.200      2.43364e+02       1.27831e+01      -4.71607e+00       5.85565e-04       4.08991e+02
  7.300      2.42498e+02       1.30823e+01      -4.70362e+00       5.79475e-04       4.03296e+02
  7.400      2.41648e+02       1.33257e+01      -4.72570e+00       5.73389e-04       3.97662e+02
  7.500      2.40815e+02       1.35116e+01      -4.78285e+00       5.67310e-04       3.92089e+02
  7.600      2.39989e+02       1.36508e+01      -4.88365e+00       5.61256e-04       3.86575e+02
  7.700      2.39163e+02       1.37548e+01      -5.03721e+00       5.55246e-04       3.81119e+02
  7.800      2.38328e+02       1.38354e+01      -5.25264e+00       5.49298e-04       3.75721e+02
  7.900      2.37478e+02       1.39048e+01      -5.53471e+00       5.43427e-04       3.70379e+02
  8.000      2.36616e+02       1.39810e+01      -5.86222e+00       5.37621e-04       3.65093e+02
  8.100      2.35753e+02       1.40839e+01      -6.20429e+00       5.31862e-04       3.59863e+02
  8.200      2.34896e+02       1.42334e+01      -6.53003e+00       5.26130e-04       3.54691e+02
  8.300      2.34054e+02       1.44494e+01      -6.80854e+00       5.20407e-04       3.49576e+02
  8.400      2.33233e+02       1.47417e+01      -7.01232e+00       5.14682e-04       3.44517e+02
  8.500      2.32431e+02       1.50889e+01      -7.12436e+00       5.08961e-04       3.39516e+02
  8.600      2.31642e+02       1.54632e+01      -7.12970e+00       5.03255e-04       3.34571e+02
  8.700      2.30863e+02       1.58371e+01      -7.01338e+00       4.97575e-04       3.29682e+02
  8.800      2.30088e+02       1.61829e+01      -6.76046e+00       4.91932e-04       3.24849e+02
  8.900      2.29314e+02       1.64801e+01      -6.37037e+00       4.86333e-04       3.20071e+02
  9.000      2.28536e+02       1.67339e+01      -5.89500e+00       4.80788e-04       3.15348e+02
  9.100      2.27750e+02       1.69555e+01      -5.39814e+00       4.75302e-04       3.10678e+02
  9.200      2.26953e+02       1.71559e+01      -4.94360e+00       4.69883e-04       3.06061e+02
  9.300      2.26141e+02       1.73463e+01      -4.59518e+00       4.64537e-04       3.01496e+02
  9.400      2.25310e+02       1.75369e+01      -4.41123e+00       4.59269e-04       2.96982e+02
  9.500      2.24461e+02       1.77270e+01      -4.38749e+00       4.54077e-04       2.92518e+02
  9.600      2.23599e+02       1.79091e+01      -4.47962e+00       4.48951e-04       2.88106e+02
  9.700      2.22728e+02       1.80754e+01      -4.64266e+00       4.43883e-04       2.83743e+02
  9.800      2.21850e+02       1.82184e+01      -4.83163e+00       4.38865e-04       2.79430e+02
  9.900      2.20971e+02       1.83304e+01      -5.00155e+00       4.33888e-04       2.75166e+02
 10.000      2.20094e+02       1.84045e+01      -5.11530e+00       4.28944e-04       2.70951e+02
 10.100      2.19226e+02       1.84372e+01      -5.17103e+00       4.24023e-04       2.66785e+02
 10.200      2.18370e+02       1.84261e+01      -5.17683e+00       4.19114e-04       2.62668e+02
 10.300      2.17534e+02       1.83686e+01      -5.14076e+00       4.14206e-04       2.58599e+02
 10.400      2.16723e+02       1.82624e+01      -5.07092e+00       4.09291e-04       2.54577e+02
 10.500      2.15942e+02       1.81049e+01      -4.97539e+00       4.04359e-04       2.50603e+02
 10.600      2.15199e+02       1.78965e+01      -4.86246e+00       3.99398e-04       2.46676e+02
 10.700      2.14505e+02       1.76545e+01      -4.74191e+00       3.94389e-04       2.42798e+02
 10.800      2.13877e+02       1.74032e+01      -4.62405e+00       3.89309e-04       2.38969e+02
 10.900      2.13331e+02       1.71670e+01      -4.51923e+00       3.84137e-04       2.35192e+02
 11.000      2.12881e+02       1.69701e+01      -4.43777e+00       3.78853e-04       2.31467e+02
 11.100      2.12543e+02       1.68367e+01      -4.39000e+00       3.73436e-04       2.27796e+02
 11.200      2.12333e+02       1.67909e+01      -4.38620e+00       3.67871e-04       2.24179e+02
 11.300      2.12254e+02       1.68406e+01      -4.42882e+00       3.62161e-04       2.20617e+02
 11.400      2.12285e+02       1.69591e+01      -4.50418e+00       3.56354e-04       2.17112e+02
 11.500      2.12403e+02       1.71160e+01      -4.59660e+00       3.50496e-04       2.13662e+02
 11.600      2.12584e+02       1.72806e+01      -4.69042e+00       3.44636e-04       2.10268e+02
 11.700      2.12805e+02       1.74224e+01      -4.76996e+00       3.38814e-04       2.06931e+02
 11.800      2.13040e+02       1.75106e+01      -4.81954e+00       3.33073e-04       2.03649e+02
 11.900      2.13268e+02       1.75147e+01      -4.82349e+00       3.27450e-04       2.00425e+02
 12.000      2.13466e+02       1.74099e+01      -4.76881e+00       3.21974e-04       1.97256e+02
 12.100      2.13632e+02       1.72062e+01      -4.65845e+00       3.16644e-04       1.94142e+02
 12.200      2.13771e+02       1.69266e+01      -4.50130e+00       3.11449e-04       1.91081e+02
 12.300      2.13886e+02       1.65939e+01      -4.30624e+00       3.06378e-04       1.88071e+02
 12.400      2.13981e+02       1.62312e+01      -4.08214e+00       3.01421e-04       1.85110e+02
 12.500      2.14060e+02       1.58614e+01      -3.83791e+00       2.96568e-04       1.82197e+02
 12.600      2.14127e+02       1.55074e+01      -3.58242e+00       2.91810e-04       1.79331e+02
 12.700      2.14187e+02       1.51921e+01      -3.32456e+00       2.87138e-04       1.76508e+02
 12.800      2.14242e+02       1.49380e+01      -3.07308e+00       2.82545e-04       1.73730e+02
 12.900      2.14295e+02       1.47533e+01      -2.83329e+00       2.78025e-04       1.70993e+02
 13.000      2.14346e+02       1.46302e+01      -2.60660e+00       2.73579e-04       1.68299e+02
 13.100      2.14395e+02       1.45600e+01      -2.39424e+00       2.69207e-04       1.65647e+02
 13.200      2.14442e+02       1.45342e+01      -2.19743e+00       2.64908e-04       1.63037e+02
 13.300      2.14485e+02       1.45442e+01      -2.01739e+00       2.60683e-04       1.60469e+02
 13.400      2.14526e+02       1.45814e+01      -1.85535e+00       2.56530e-04       1.57943e+02
 13.500      2.14564e+02       1.46371e+01      -1.71253e+00       2.52449e-04       1.55458e+02
 13.600      2.14598e+02       1.47029e+01      -1.59016e+00       2.48441e-04       1.53014e+02
 13.700      2.14629e+02       1.47700e+01      -1.48945e+00       2.44505e-04       1.50612e+02
 13.800      2.14657e+02       1.48303e+01      -1.41145e+00       2.40640e-04       1.48250e+02
 13.900      2.14681e+02       1.48782e+01      -1.35567e+00       2.36844e-04       1.45927e+02
 14.000      2.14701e+02       1.49098e+01      -1.32075e+00       2.33113e-04       1.43643e+02
 14.100      2.14720e+02       1.49210e+01      -1.30538e+00       2.29446e-04       1.41395e+02
 14.200      2.14735e+02       1.49081e+01      -1.30820e+00       2.25838e-04       1.39182e+02
 14.300      2.14749e+02       1.48669e+01      -1.32789e+00       2.22287e-04       1.37002e+02
 14.400      2.14761e+02       1.47935e+01      -1.36311e+00       2.18791e-04       1.34855e+02
 14.500      2.14772e+02       1.46840e+01      -1.41251e+00       2.15347e-04       1.32739e+02
 14.600      2.14782e+02       1.45344e+01      -1.47477e+00       2.11952e-04       1.30653e+02
 14.700      2.14791e+02       1.43408e+01      -1.54855e+00       2.08606e-04       1.28595e+02
 14.800      2.14800e+02       1.40990e+01      -1.63250e+00       2.05304e-04       1.26565e+02
 14.900      2.14809e+02       1.38053e+01      -1.72530e+00       2.02045e-04       1.24561e+02
 15.000      2.14819e+02       1.34588e+01      -1.82560e+00       1.98829e-04       1.22584e+02
 15.100      2.14828e+02       1.30648e+01      -1.93206e+00       1.95657e-04       1.20634e+02
 15.200      2.14838e+02       1.26298e+01      -2.04334e+00       1.92530e-04       1.18712e+02
 15.300      2.14848e+02       1.21601e+01      -2.15811e+00       1.89451e-04       1.16818e+02
 15.400      2.14858e+02       1.16619e+01      -2.27501e+00       1.86419e-04       1.14954e+02
 15.500      2.14867e+02       1.11417e+01      -2.39271e+00       1.83436e-04       1.13120e+02
 15.600      2.14877e+02       1.06057e+01      -2.50986e+00       1.80504e-04       1.11316e+02
 15.700      2.14886e+02       1.00602e+01      -2.62513e+00       1.77624e-04       1.09544e+02
 15.800      2.14894e+02       9.51168e+00      -2.73717e+00       1.74796e-04       1.07804e+02
 15.900      2.14902e+02       8.96634e+00      -2.84464e+00       1.72021e-04       1.06097e+02
 16.000      2.14908e+02       8.43051e+00      -2.94620e+00       1.69299e-04       1.04422e+02
 16.100      2.14914e+02       7.91054e+00      -3.04051e+00       1.66632e-04       1.02780e+02
 16.200      2.14919e+02       7.41274e+00      -3.12623e+00       1.64020e-04       1.01171e+02
 16.300      2.14923e+02       6.94343e+00      -3.20201e+00       1.61464e-04       9.95956e+01
 16.400      2.14926e+02       6.50639e+00      -3.26714e+00       1.58962e-04       9.80536e+01
 16.500      2.14928e+02       6.10074e+00      -3.32200e+00       1.56512e-04       9.65432e+01
 16.600      2.14928e+02       5.72505e+00      -3.36712e+00       1.54112e-04       9.50631e+01
 16.700      2.14928e+02       5.37789e+00      -3.40303e+00       1.51759e-04       9.36117e+01
 16.800      2.14926e+02       5.05783e+00      -3.43027e+00       1.49452e-04       9.21876e+01
 16.900      2.14924e+02       4.76344e+00      -3.44935e+00       1.47187e-04       9.07896e+01
 17.000      2.14921e+02       4.49330e+00      -3.46081e+00       1.44963e-04       8.94163e+01
 17.100      2.14917e+02       4.24597e+00      -3.46517e+00       1.42777e-04       8.80666e+01
 17.200      2.14913e+02       4.02003e+00      -3.46297e+00       1.40628e-04       8.67393e+01
 17.300      2.14908e+02       3.81406e+00      -3.45473e+00       1.38514e-04       8.54334e+01
 17.400      2.14902e+02       3.62662e+00      -3.44097e+00       1.36433e-04       8.41477e+01
 17.500      2.14896e+02       3.45628e+00      -3.42224e+00       1.34383e-04       8.28811e+01
 17.600      2.14890e+02       3.30162e+00      -3.39904e+00       1.32363e-04       8.16330e+01
 17.700      2.14883e+02       3.16120e+00      -3.37193e+00       1.30372e-04       8.04021e+01
 17.800      2.14876e+02       3.03361e+00      -3.34141e+00       1.28407e-04       7.91878e+01
 17.900      2.14869e+02       2.91742e+00      -3.30802e+00       1.26468e-04       7.79892e+01
 18.000      2.14861e+02       2.81118e+00      -3.27229e+00       1.24552e-04       7.68054e+01
 18.100      2.14854e+02       2.71348e+00      -3.23474e+00       1.22660e-04       7.56357e+01
 18.200      2.14847e+02       2.62289e+00      -3.19591e+00       1.20789e-04       7.44796e+01
 18.300      2.14839e+02       2.53798e+00      -3.15632e+00       1.18939e-04       7.33361e+01
 18.400      2.14832e+02       2.45733e+00      -3.11649e+00       1.17108e-04       7.22048e+01
 18.500      2.14825e+02       2.37949e+00      -3.07697e+00       1.15295e-04       7.10849e+01
 18.600      2.14818e+02       2.30306e+00      -3.03827e+00       1.13500e-04       6.99761e+01
 18.700      2.14811e+02       2.22683e+00      -3.00085e+00       1.11722e-04       6.88778e+01
 18.800      2.14805e+02       2.15050e+00      -2.96491e+00       1.09962e-04       6.77905e+01
 18.900      2.14799e+02       2.07398e+00      -2.93058e+00       1.08220e-04       6.67148e+01
 19.000      2.14794e+02       1.99717e+00      -2.89797e+00       1.06498e-04       6.56512e+01
 19.100      2.14788e+02       1.91997e+00      -2.86723e+00       1.04795e-04       6.46002e+01
 19.200      2.14783e+02       1.84230e+00      -2.83848e+00       1.03114e-04       6.35622e+01
 19.300      2.14778e+02       1.76405e+00      -2.81185e+00       1.01454e-04       6.25377e+01
 19.400      2.14773e+02       1.68514e+00      -2.78747e+00       9.98168e-05       6.15270e+01
 19.500      2.14769e+02       1.60546e+00      -2.76547e+00       9.82021e-05       6.05304e+01
 19.600      2.14764e+02       1.52492e+00      -2.74598e+00       9.66108e-05       5.95483e+01
 19.700      2.14760e+02       1.44343e+00      -2.72912e+00       9.50433e-05       5.85809e+01
 19.800      2.14756e+02       1.36089e+00      -2.71504e+00       9.35001e-05       5.76287e+01
 19.900      2.14752e+02       1.27721e+00      -2.70385e+00       9.19815e-05       5.66916e+01
 20.000      2.14748e+02       1.19229e+00      -2.69568e+00       9.04880e-05       5.57701e+01
 20.100      2.14744e+02       1.10603e+00      -2.69067e+00       8.90197e-05       5.48641e+01
 20.200      2.14740e+02       1.01834e+00      -2.68895e+00       8.75769e-05       5.39740e+01
 20.300      2.14736e+02       9.29131e-01      -2.69063e+00       8.61600e-05       5.30998e+01
