# Data Source: NASA MERRA (version 1)
# Model Time = 2010-03-25 18:00:00
# Location = [  39.7393, -104.9900 ]
# Fields = [ Z(km), T(K), U(m/s), V(m/s), R(g/cm3), P(mbar) ]
# Ground Height = 1.589
  0.000      2.88637e+02       1.10329e+00       2.52091e+00       1.22410e-03       1.01403e+03
  0.100      2.88023e+02       1.07995e+00       2.53470e+00       1.21226e-03       1.00208e+03
  0.200      2.87413e+02       1.05643e+00       2.55023e+00       1.20052e-03       9.90280e+02
  0.300      2.86779e+02       1.03371e+00       2.55758e+00       1.18899e-03       9.78602e+02
  0.400      2.86095e+02       1.01308e+00       2.54789e+00       1.17774e-03       9.67030e+02
  0.500      2.85389e+02       9.99681e-01       2.52360e+00       1.16665e-03       9.55564e+02
  0.600      2.84722e+02       1.00058e+00       2.49384e+00       1.15549e-03       9.44210e+02
  0.700      2.84101e+02       1.01416e+00       2.46350e+00       1.14423e-03       9.32969e+02
  0.800      2.83482e+02       1.03037e+00       2.43324e+00       1.13304e-03       9.21833e+02
  0.900      2.82840e+02       1.03871e+00       2.40009e+00       1.12201e-03       9.10797e+02
  1.000      2.82195e+02       1.02849e+00       2.35500e+00       1.11109e-03       8.99870e+02
  1.100      2.81562e+02       9.92018e-01       2.29373e+00       1.10020e-03       8.89057e+02
  1.200      2.80945e+02       9.33197e-01       2.23316e+00       1.08935e-03       8.78356e+02
  1.300      2.80342e+02       8.58712e-01       2.19524e+00       1.07853e-03       8.67764e+02
  1.400      2.79752e+02       7.75254e-01       2.20192e+00       1.06774e-03       8.57279e+02
  1.500      2.79174e+02       6.89502e-01       2.27494e+00       1.05700e-03       8.46896e+02
  1.600      2.78606e+02       6.07382e-01       2.41949e+00       1.04629e-03       8.36616e+02
  1.700      2.78044e+02       5.33538e-01       2.61269e+00       1.03565e-03       8.26437e+02
  1.800      2.77483e+02       4.72491e-01       2.82897e+00       1.02509e-03       8.16360e+02
  1.900      2.76920e+02       4.28759e-01       3.04272e+00       1.01463e-03       8.06385e+02
  2.000      2.76351e+02       4.06847e-01       3.22852e+00       1.00427e-03       7.96513e+02
  2.100      2.75774e+02       4.10302e-01       3.36877e+00       9.94026e-04       7.86744e+02
  2.200      2.75195e+02       4.41282e-01       3.45741e+00       9.83878e-04       7.77075e+02
  2.300      2.74617e+02       5.01830e-01       3.48928e+00       9.73808e-04       7.67507e+02
  2.400      2.74045e+02       5.93992e-01       3.45921e+00       9.63799e-04       7.58038e+02
  2.500      2.73485e+02       7.19816e-01       3.36207e+00       9.53835e-04       7.48667e+02
  2.600      2.72938e+02       8.83982e-01       3.19662e+00       9.43908e-04       7.39393e+02
  2.700      2.72398e+02       1.09807e+00       2.97193e+00       9.34038e-04       7.30215e+02
  2.800      2.71860e+02       1.37476e+00       2.69873e+00       9.24245e-04       7.21131e+02
  2.900      2.71316e+02       1.72677e+00       2.38777e+00       9.14552e-04       7.12141e+02
  3.000      2.70760e+02       2.16677e+00       2.04976e+00       9.04978e-04       7.03241e+02
  3.100      2.70185e+02       2.70547e+00       1.69519e+00       8.95542e-04       6.94433e+02
  3.200      2.69591e+02       3.32713e+00       1.33117e+00       8.86248e-04       6.85713e+02
  3.300      2.68978e+02       3.99742e+00       9.62442e-01       8.77087e-04       6.77083e+02
  3.400      2.68349e+02       4.68158e+00       5.93677e-01       8.68054e-04       6.68541e+02
  3.500      2.67704e+02       5.34489e+00       2.29565e-01       8.59141e-04       6.60087e+02
  3.600      2.67046e+02       5.95261e+00      -1.25209e-01       8.50342e-04       6.51720e+02
  3.700      2.66376e+02       6.47450e+00      -4.66544e-01       8.41650e-04       6.43440e+02
  3.800      2.65695e+02       6.91443e+00      -7.94733e-01       8.33060e-04       6.35246e+02
  3.900      2.65004e+02       7.29184e+00      -1.11209e+00       8.24569e-04       6.27136e+02
  4.000      2.64304e+02       7.62622e+00      -1.42092e+00       8.16172e-04       6.19110e+02
  4.100      2.63595e+02       7.93709e+00      -1.72354e+00       8.07866e-04       6.11166e+02
  4.200      2.62879e+02       8.24398e+00      -2.02228e+00       7.99646e-04       6.03303e+02
  4.300      2.62155e+02       8.56559e+00      -2.31924e+00       7.91509e-04       5.95520e+02
  4.400      2.61426e+02       8.90780e+00      -2.61312e+00       7.83450e-04       5.87817e+02
  4.500      2.60692e+02       9.26593e+00      -2.89983e+00       7.75465e-04       5.80192e+02
  4.600      2.59955e+02       9.63498e+00      -3.17522e+00       7.67550e-04       5.72646e+02
  4.700      2.59215e+02       1.00100e+01      -3.43511e+00       7.59700e-04       5.65177e+02
  4.800      2.58476e+02       1.03860e+01      -3.67533e+00       7.51910e-04       5.57786e+02
  4.900      2.57737e+02       1.07579e+01      -3.89172e+00       7.44177e-04       5.50471e+02
  5.000      2.56999e+02       1.11216e+01      -4.08065e+00       7.36498e-04       5.43232e+02
  5.100      2.56263e+02       1.14756e+01      -4.24106e+00       7.28873e-04       5.36068e+02
  5.200      2.55528e+02       1.18196e+01      -4.37272e+00       7.21303e-04       5.28979e+02
  5.300      2.54793e+02       1.21535e+01      -4.47536e+00       7.13790e-04       5.21963e+02
  5.400      2.54057e+02       1.24768e+01      -4.54874e+00       7.06337e-04       5.15021e+02
  5.500      2.53320e+02       1.27893e+01      -4.59259e+00       6.98943e-04       5.08150e+02
  5.600      2.52580e+02       1.30906e+01      -4.60666e+00       6.91611e-04       5.01352e+02
  5.700      2.51837e+02       1.33805e+01      -4.59138e+00       6.84342e-04       4.94625e+02
  5.800      2.51092e+02       1.36593e+01      -4.55223e+00       6.77137e-04       4.87968e+02
  5.900      2.50344e+02       1.39273e+01      -4.49694e+00       6.69993e-04       4.81381e+02
  6.000      2.49593e+02       1.41853e+01      -4.43326e+00       6.62910e-04       4.74864e+02
  6.100      2.48839e+02       1.44335e+01      -4.36894e+00       6.55889e-04       4.68416e+02
  6.200      2.48084e+02       1.46724e+01      -4.31172e+00       6.48927e-04       4.62036e+02
  6.300      2.47326e+02       1.49027e+01      -4.26935e+00       6.42025e-04       4.55725e+02
  6.400      2.46566e+02       1.51247e+01      -4.24958e+00       6.35182e-04       4.49482e+02
  6.500      2.45804e+02       1.53393e+01      -4.25795e+00       6.28397e-04       4.43307e+02
  6.600      2.45039e+02       1.55489e+01      -4.29312e+00       6.21671e-04       4.37198e+02
  6.700      2.44271e+02       1.57560e+01      -4.35241e+00       6.15005e-04       4.31155e+02
  6.800      2.43500e+02       1.59630e+01      -4.43313e+00       6.08398e-04       4.25176e+02
  6.900      2.42725e+02       1.61726e+01      -4.53261e+00       6.01853e-04       4.19263e+02
  7.000      2.41944e+02       1.63873e+01      -4.64817e+00       5.95368e-04       4.13412e+02
  7.100      2.41159e+02       1.66097e+01      -4.77712e+00       5.88946e-04       4.07625e+02
  7.200      2.40367e+02       1.68422e+01      -4.91679e+00       5.82585e-04       4.01899e+02
  7.300      2.39570e+02       1.70870e+01      -5.06462e+00       5.76288e-04       3.96235e+02
  7.400      2.38766e+02       1.73412e+01      -5.21947e+00       5.70050e-04       3.90632e+02
  7.500      2.37958e+02       1.75990e+01      -5.38115e+00       5.63870e-04       3.85089e+02
  7.600      2.37146e+02       1.78542e+01      -5.54947e+00       5.57744e-04       3.79606e+02
  7.700      2.36333e+02       1.81008e+01      -5.72423e+00       5.51669e-04       3.74183e+02
  7.800      2.35518e+02       1.83329e+01      -5.90525e+00       5.45641e-04       3.68819e+02
  7.900      2.34704e+02       1.85442e+01      -6.09234e+00       5.39658e-04       3.63514e+02
  8.000      2.33892e+02       1.87289e+01      -6.28530e+00       5.33716e-04       3.58267e+02
  8.100      2.33082e+02       1.88808e+01      -6.48395e+00       5.27812e-04       3.53078e+02
  8.200      2.32277e+02       1.89941e+01      -6.68803e+00       5.21945e-04       3.47947e+02
  8.300      2.31476e+02       1.90665e+01      -6.89452e+00       5.16112e-04       3.42872e+02
  8.400      2.30681e+02       1.91007e+01      -7.09681e+00       5.10314e-04       3.37855e+02
  8.500      2.29890e+02       1.90997e+01      -7.28809e+00       5.04551e-04       3.32894e+02
  8.600      2.29104e+02       1.90665e+01      -7.46151e+00       4.98824e-04       3.27991e+02
  8.700      2.28323e+02       1.90041e+01      -7.61024e+00       4.93133e-04       3.23143e+02
  8.800      2.27546e+02       1.89154e+01      -7.72745e+00       4.87478e-04       3.18352e+02
  8.900      2.26775e+02       1.88035e+01      -7.80632e+00       4.81861e-04       3.13617e+02
  9.000      2.26008e+02       1.86714e+01      -7.83999e+00       4.76281e-04       3.08937e+02
  9.100      2.25247e+02       1.85220e+01      -7.82165e+00       4.70739e-04       3.04313e+02
  9.200      2.24490e+02       1.83583e+01      -7.74446e+00       4.65234e-04       2.99744e+02
  9.300      2.23738e+02       1.81838e+01      -7.60432e+00       4.59769e-04       2.95230e+02
  9.400      2.22989e+02       1.80034e+01      -7.40638e+00       4.54343e-04       2.90770e+02
  9.500      2.22244e+02       1.78224e+01      -7.15772e+00       4.48957e-04       2.86362e+02
  9.600      2.21500e+02       1.76459e+01      -6.86544e+00       4.43613e-04       2.82007e+02
  9.700      2.20757e+02       1.74794e+01      -6.53663e+00       4.38311e-04       2.77702e+02
  9.800      2.20015e+02       1.73279e+01      -6.17838e+00       4.33053e-04       2.73448e+02
  9.900      2.19271e+02       1.71968e+01      -5.79777e+00       4.27840e-04       2.69243e+02
 10.000      2.18525e+02       1.70913e+01      -5.40191e+00       4.22671e-04       2.65086e+02
 10.100      2.17777e+02       1.70166e+01      -4.99788e+00       4.17549e-04       2.60976e+02
 10.200      2.17024e+02       1.69781e+01      -4.59277e+00       4.12474e-04       2.56914e+02
 10.300      2.16267e+02       1.69809e+01      -4.19368e+00       4.07447e-04       2.52897e+02
 10.400      2.15504e+02       1.70302e+01      -3.80768e+00       4.02469e-04       2.48926e+02
 10.500      2.14738e+02       1.71279e+01      -3.43971e+00       3.97535e-04       2.45000e+02
 10.600      2.13975e+02       1.72693e+01      -3.09087e+00       3.92634e-04       2.41120e+02
 10.700      2.13226e+02       1.74492e+01      -2.76181e+00       3.87754e-04       2.37289e+02
 10.800      2.12497e+02       1.76621e+01      -2.45322e+00       3.82881e-04       2.33507e+02
 10.900      2.11799e+02       1.79029e+01      -2.16576e+00       3.78006e-04       2.29775e+02
 11.000      2.11138e+02       1.81662e+01      -1.90009e+00       3.73115e-04       2.26095e+02
 11.100      2.10524e+02       1.84468e+01      -1.65688e+00       3.68199e-04       2.22467e+02
 11.200      2.09965e+02       1.87393e+01      -1.43682e+00       3.63248e-04       2.18893e+02
 11.300      2.09469e+02       1.90385e+01      -1.24055e+00       3.58251e-04       2.15372e+02
 11.400      2.09045e+02       1.93391e+01      -1.06876e+00       3.53200e-04       2.11906e+02
 11.500      2.08702e+02       1.96358e+01      -9.22107e-01       3.48088e-04       2.08496e+02
 11.600      2.08447e+02       1.99233e+01      -8.01265e-01       3.42905e-04       2.05141e+02
 11.700      2.08290e+02       2.01963e+01      -7.06903e-01       3.37646e-04       2.01842e+02
 11.800      2.08238e+02       2.04496e+01      -6.39638e-01       3.32306e-04       1.98600e+02
 11.900      2.08292e+02       2.06811e+01      -5.98474e-01       3.26891e-04       1.95415e+02
 12.000      2.08443e+02       2.08923e+01      -5.80499e-01       3.21421e-04       1.92284e+02
 12.100      2.08681e+02       2.10850e+01      -5.82689e-01       3.15917e-04       1.89207e+02
 12.200      2.08997e+02       2.12610e+01      -6.02017e-01       3.10399e-04       1.86184e+02
 12.300      2.09381e+02       2.14219e+01      -6.35460e-01       3.04883e-04       1.83212e+02
 12.400      2.09824e+02       2.15696e+01      -6.79993e-01       2.99389e-04       1.80290e+02
 12.500      2.10316e+02       2.17058e+01      -7.32590e-01       2.93931e-04       1.77419e+02
 12.600      2.10848e+02       2.18322e+01      -7.90228e-01       2.88524e-04       1.74596e+02
 12.700      2.11410e+02       2.19507e+01      -8.49879e-01       2.83183e-04       1.71821e+02
 12.800      2.11993e+02       2.20628e+01      -9.08522e-01       2.77920e-04       1.69092e+02
 12.900      2.12587e+02       2.21705e+01      -9.63130e-01       2.72747e-04       1.66410e+02
 13.000      2.13183e+02       2.22754e+01      -1.01068e+00       2.67673e-04       1.63772e+02
 13.100      2.13771e+02       2.23793e+01      -1.04814e+00       2.62710e-04       1.61178e+02
 13.200      2.14341e+02       2.24840e+01      -1.07250e+00       2.57865e-04       1.58628e+02
 13.300      2.14885e+02       2.25912e+01      -1.08072e+00       2.53145e-04       1.56120e+02
 13.400      2.15392e+02       2.27026e+01      -1.06978e+00       2.48559e-04       1.53653e+02
 13.500      2.15853e+02       2.28200e+01      -1.03666e+00       2.44111e-04       1.51227e+02
 13.600      2.16259e+02       2.29452e+01      -9.78428e-01       2.39809e-04       1.48840e+02
 13.700      2.16606e+02       2.30780e+01      -8.94534e-01       2.35648e-04       1.46493e+02
 13.800      2.16897e+02       2.32171e+01      -7.86874e-01       2.31623e-04       1.44184e+02
 13.900      2.17135e+02       2.33605e+01      -6.57462e-01       2.27725e-04       1.41913e+02
 14.000      2.17322e+02       2.35068e+01      -5.08307e-01       2.23947e-04       1.39679e+02
 14.100      2.17461e+02       2.36541e+01      -3.41420e-01       2.20282e-04       1.37481e+02
 14.200      2.17556e+02       2.38008e+01      -1.58816e-01       2.16723e-04       1.35318e+02
 14.300      2.17608e+02       2.39452e+01       3.74997e-02       2.13264e-04       1.33191e+02
 14.400      2.17621e+02       2.40856e+01       2.45511e-01       2.09900e-04       1.31098e+02
 14.500      2.17597e+02       2.42204e+01       4.63210e-01       2.06625e-04       1.29038e+02
 14.600      2.17539e+02       2.43477e+01       6.88585e-01       2.03434e-04       1.27012e+02
 14.700      2.17451e+02       2.44661e+01       9.19622e-01       2.00322e-04       1.25018e+02
 14.800      2.17334e+02       2.45737e+01       1.15431e+00       1.97284e-04       1.23055e+02
 14.900      2.17192e+02       2.46688e+01       1.39065e+00       1.94315e-04       1.21124e+02
 15.000      2.17027e+02       2.47498e+01       1.62661e+00       1.91412e-04       1.19224e+02
 15.100      2.16842e+02       2.48151e+01       1.86020e+00       1.88570e-04       1.17354e+02
 15.200      2.16641e+02       2.48628e+01       2.08939e+00       1.85785e-04       1.15513e+02
 15.300      2.16425e+02       2.48914e+01       2.31218e+00       1.83054e-04       1.13702e+02
 15.400      2.16198e+02       2.48991e+01       2.52656e+00       1.80373e-04       1.11919e+02
 15.500      2.15962e+02       2.48842e+01       2.73051e+00       1.77739e-04       1.10164e+02
 15.600      2.15720e+02       2.48451e+01       2.92203e+00       1.75148e-04       1.08437e+02
 15.700      2.15476e+02       2.47800e+01       3.09909e+00       1.72598e-04       1.06737e+02
 15.800      2.15231e+02       2.46873e+01       3.25971e+00       1.70085e-04       1.05063e+02
 15.900      2.14988e+02       2.45653e+01       3.40185e+00       1.67607e-04       1.03416e+02
 16.000      2.14752e+02       2.44123e+01       3.52351e+00       1.65160e-04       1.01794e+02
 16.100      2.14523e+02       2.42266e+01       3.62268e+00       1.62743e-04       1.00198e+02
 16.200      2.14305e+02       2.40071e+01       3.69772e+00       1.60353e-04       9.86261e+01
 16.300      2.14098e+02       2.37556e+01       3.74918e+00       1.57990e-04       9.70787e+01
 16.400      2.13902e+02       2.34751e+01       3.77838e+00       1.55653e-04       9.55553e+01
 16.500      2.13717e+02       2.31686e+01       3.78668e+00       1.53342e-04       9.40553e+01
 16.600      2.13543e+02       2.28391e+01       3.77539e+00       1.51058e-04       9.25785e+01
 16.700      2.13379e+02       2.24896e+01       3.74587e+00       1.48800e-04       9.11244e+01
 16.800      2.13225e+02       2.21231e+01       3.69943e+00       1.46567e-04       8.96926e+01
 16.900      2.13082e+02       2.17425e+01       3.63743e+00       1.44360e-04       8.82827e+01
 17.000      2.12948e+02       2.13509e+01       3.56119e+00       1.42179e-04       8.68944e+01
 17.100      2.12824e+02       2.09512e+01       3.47205e+00       1.40024e-04       8.55273e+01
 17.200      2.12710e+02       2.05464e+01       3.37134e+00       1.37893e-04       8.41809e+01
 17.300      2.12606e+02       2.01396e+01       3.26041e+00       1.35788e-04       8.28551e+01
 17.400      2.12510e+02       1.97336e+01       3.14058e+00       1.33709e-04       8.15494e+01
 17.500      2.12424e+02       1.93316e+01       3.01320e+00       1.31654e-04       8.02635e+01
 17.600      2.12346e+02       1.89364e+01       2.87960e+00       1.29624e-04       7.89970e+01
 17.700      2.12278e+02       1.85511e+01       2.74111e+00       1.27618e-04       7.77497e+01
 17.800      2.12217e+02       1.81787e+01       2.59907e+00       1.25637e-04       7.65212e+01
 17.900      2.12166e+02       1.78221e+01       2.45481e+00       1.23681e-04       7.53112e+01
 18.000      2.12122e+02       1.74844e+01       2.30968e+00       1.21749e-04       7.41194e+01
 18.100      2.12087e+02       1.71684e+01       2.16500e+00       1.19840e-04       7.29455e+01
 18.200      2.12059e+02       1.68773e+01       2.02212e+00       1.17956e-04       7.17892e+01
 18.300      2.12039e+02       1.66141e+01       1.88237e+00       1.16096e-04       7.06502e+01
 18.400      2.12027e+02       1.63815e+01       1.74706e+00       1.14259e-04       6.95283e+01
 18.500      2.12022e+02       1.61803e+01       1.61690e+00       1.12445e-04       6.84231e+01
 18.600      2.12023e+02       1.60083e+01       1.49183e+00       1.10656e-04       6.73348e+01
 18.700      2.12031e+02       1.58630e+01       1.37176e+00       1.08891e-04       6.62631e+01
 18.800      2.12045e+02       1.57423e+01       1.25659e+00       1.07150e-04       6.52078e+01
 18.900      2.12063e+02       1.56437e+01       1.14621e+00       1.05433e-04       6.41690e+01
 19.000      2.12087e+02       1.55649e+01       1.04052e+00       1.03741e-04       6.31464e+01
 19.100      2.12115e+02       1.55035e+01       9.39441e-01       1.02075e-04       6.21400e+01
 19.200      2.12147e+02       1.54572e+01       8.42856e-01       1.00432e-04       6.11496e+01
 19.300      2.12183e+02       1.54236e+01       7.50672e-01       9.88154e-05       6.01751e+01
 19.400      2.12221e+02       1.54004e+01       6.62787e-01       9.72233e-05       5.92163e+01
 19.500      2.12262e+02       1.53852e+01       5.79102e-01       9.56563e-05       5.82731e+01
 19.600      2.12305e+02       1.53757e+01       4.99519e-01       9.41144e-05       5.73453e+01
 19.700      2.12349e+02       1.53695e+01       4.23938e-01       9.25975e-05       5.64328e+01
 19.800      2.12395e+02       1.53643e+01       3.52262e-01       9.11058e-05       5.55356e+01
 19.900      2.12440e+02       1.53577e+01       2.84388e-01       8.96389e-05       5.46532e+01
 20.000      2.12486e+02       1.53474e+01       2.20218e-01       8.81971e-05       5.37858e+01
 20.100      2.12532e+02       1.53310e+01       1.59653e-01       8.67801e-05       5.29330e+01
 20.200      2.12577e+02       1.53061e+01       1.02594e-01       8.53878e-05       5.20947e+01
 20.300      2.12620e+02       1.52705e+01       4.89431e-02       8.40202e-05       5.12709e+01
