# Data Source: NASA GEOS5 Near-Real-Time
# Model Time = 2010-06-23 18:00:00
# Location = [  39.7393, -104.9900 ]
# Fields = [ Z(km), T(K), U(m/s), V(m/s), R(g/cm3), P(mbar) ]
# Ground Height = 1.589
  0.000      3.06908e+02      -2.41853e+00       1.17705e+00       1.15941e-03       1.02124e+03
  0.100      3.06277e+02      -2.45022e+00       1.19416e+00       1.14825e-03       1.00933e+03
  0.200      3.05664e+02      -2.48021e+00       1.21735e+00       1.13713e-03       9.97549e+02
  0.300      3.05046e+02      -2.51066e+00       1.23894e+00       1.12613e-03       9.85910e+02
  0.400      3.04401e+02      -2.54367e+00       1.25122e+00       1.11536e-03       9.74411e+02
  0.500      3.03718e+02      -2.58049e+00       1.25178e+00       1.10484e-03       9.63056e+02
  0.600      3.03027e+02      -2.61928e+00       1.25622e+00       1.09446e-03       9.51837e+02
  0.700      3.02358e+02      -2.65666e+00       1.27745e+00       1.08410e-03       9.40751e+02
  0.800      3.01701e+02      -2.68365e+00       1.28516e+00       1.07382e-03       9.29798e+02
  0.900      3.01027e+02      -2.68986e+00       1.23515e+00       1.06370e-03       9.18983e+02
  1.000      3.00344e+02      -2.68122e+00       1.14897e+00       1.05373e-03       9.08302e+02
  1.100      2.99690e+02      -2.67761e+00       1.10446e+00       1.04376e-03       8.97749e+02
  1.200      2.99077e+02      -2.68928e+00       1.13596e+00       1.03375e-03       8.87320e+02
  1.300      2.98467e+02      -2.70490e+00       1.18056e+00       1.02384e-03       8.77021e+02
  1.400      2.97815e+02      -2.71281e+00       1.17038e+00       1.01419e-03       8.66855e+02
  1.500      2.97112e+02      -2.71960e+00       1.09325e+00       1.00481e-03       8.56816e+02
  1.600      2.96358e+02      -2.73982e+00       9.61979e-01       9.95704e-04       8.46894e+02
  1.700      2.95561e+02      -2.77440e+00       7.99002e-01       9.86821e-04       8.37082e+02
  1.800      2.94732e+02      -2.80205e+00       6.42308e-01       9.78121e-04       8.27372e+02
  1.900      2.93880e+02      -2.80118e+00       5.28184e-01       9.69559e-04       8.17761e+02
  2.000      2.93018e+02      -2.76547e+00       4.66069e-01       9.61096e-04       8.08244e+02
  2.100      2.92156e+02      -2.69635e+00       4.51725e-01       9.52695e-04       7.98822e+02
  2.200      2.91300e+02      -2.59281e+00       4.79829e-01       9.44334e-04       7.89494e+02
  2.300      2.90448e+02      -2.44699e+00       5.42368e-01       9.36024e-04       7.80256e+02
  2.400      2.89593e+02      -2.24948e+00       6.30987e-01       9.27779e-04       7.71106e+02
  2.500      2.88750e+02      -1.97949e+00       7.41304e-01       9.19550e-04       7.62043e+02
  2.600      2.87961e+02      -1.60242e+00       8.73750e-01       9.11211e-04       7.53069e+02
  2.700      2.87262e+02      -1.08730e+00       1.02833e+00       9.02650e-04       7.44183e+02
  2.800      2.86641e+02      -4.56847e-01       1.19636e+00       8.93915e-04       7.35388e+02
  2.900      2.86051e+02       2.30519e-01       1.36344e+00       8.85160e-04       7.26686e+02
  3.000      2.85447e+02       9.21139e-01       1.51576e+00       8.76524e-04       7.18076e+02
  3.100      2.84815e+02       1.60057e+00       1.64480e+00       8.68045e-04       7.09555e+02
  3.200      2.84153e+02       2.27171e+00       1.74436e+00       8.59719e-04       7.01117e+02
  3.300      2.83460e+02       2.93654e+00       1.80813e+00       8.51543e-04       6.92757e+02
  3.400      2.82740e+02       3.59121e+00       1.82900e+00       8.43503e-04       6.84472e+02
  3.500      2.81997e+02       4.22967e+00       1.79954e+00       8.35583e-04       6.76264e+02
  3.600      2.81237e+02       4.84545e+00       1.71489e+00       8.27765e-04       6.68130e+02
  3.700      2.80474e+02       5.42903e+00       1.58660e+00       8.20007e-04       6.60072e+02
  3.800      2.79726e+02       5.96972e+00       1.43273e+00       8.12260e-04       6.52092e+02
  3.900      2.79008e+02       6.45758e+00       1.27099e+00       8.04480e-04       6.44190e+02
  4.000      2.78319e+02       6.88942e+00       1.11626e+00       7.96675e-04       6.36365e+02
  4.100      2.77648e+02       7.26569e+00       9.81890e-01       7.88876e-04       6.28615e+02
  4.200      2.76983e+02       7.58733e+00       8.80643e-01       7.81112e-04       6.20938e+02
  4.300      2.76319e+02       7.86468e+00       8.14117e-01       7.73399e-04       6.13334e+02
  4.400      2.75657e+02       8.11672e+00       7.73582e-01       7.65740e-04       6.05805e+02
  4.500      2.74997e+02       8.36273e+00       7.49924e-01       7.58137e-04       5.98354e+02
  4.600      2.74338e+02       8.61452e+00       7.34212e-01       7.50593e-04       5.90980e+02
  4.700      2.73677e+02       8.86822e+00       7.17912e-01       7.43113e-04       5.83681e+02
  4.800      2.73012e+02       9.11801e+00       6.92541e-01       7.35702e-04       5.76454e+02
  4.900      2.72339e+02       9.35778e+00       6.51300e-01       7.28363e-04       5.69298e+02
  5.000      2.71662e+02       9.57952e+00       5.99957e-01       7.21089e-04       5.62211e+02
  5.100      2.70984e+02       9.77431e+00       5.49948e-01       7.13870e-04       5.55193e+02
  5.200      2.70310e+02       9.93337e+00       5.12706e-01       7.06693e-04       5.48245e+02
  5.300      2.69643e+02       1.00615e+01       4.95753e-01       6.99550e-04       5.41365e+02
  5.400      2.68986e+02       1.01898e+01       4.99092e-01       6.92440e-04       5.34556e+02
  5.500      2.68340e+02       1.03521e+01       5.21874e-01       6.85359e-04       5.27818e+02
  5.600      2.67706e+02       1.05809e+01       5.63139e-01       6.78305e-04       5.21152e+02
  5.700      2.67084e+02       1.08815e+01       6.20163e-01       6.71279e-04       5.14556e+02
  5.800      2.66473e+02       1.12378e+01       6.88779e-01       6.64283e-04       5.08029e+02
  5.900      2.65872e+02       1.16326e+01       7.64779e-01       6.57320e-04       5.01570e+02
  6.000      2.65278e+02       1.20499e+01       8.44489e-01       6.50393e-04       4.95176e+02
  6.100      2.64684e+02       1.24820e+01       9.28782e-01       6.43523e-04       4.88847e+02
  6.200      2.64078e+02       1.29253e+01       1.02084e+00       6.36737e-04       4.82584e+02
  6.300      2.63449e+02       1.33763e+01       1.12386e+00       6.30061e-04       4.76387e+02
  6.400      2.62787e+02       1.38303e+01       1.23963e+00       6.23519e-04       4.70257e+02
  6.500      2.62091e+02       1.42748e+01       1.35852e+00       6.17110e-04       4.64191e+02
  6.600      2.61365e+02       1.46930e+01       1.46541e+00       6.10822e-04       4.58188e+02
  6.700      2.60612e+02       1.50682e+01       1.54517e+00       6.04643e-04       4.52247e+02
  6.800      2.59836e+02       1.53849e+01       1.58423e+00       5.98562e-04       4.46366e+02
  6.900      2.59042e+02       1.56452e+01       1.59104e+00       5.92566e-04       4.40544e+02
  7.000      2.58235e+02       1.58640e+01       1.59019e+00       5.86642e-04       4.34781e+02
  7.100      2.57421e+02       1.60564e+01       1.60661e+00       5.80776e-04       4.29076e+02
  7.200      2.56604e+02       1.62375e+01       1.66509e+00       5.74955e-04       4.23428e+02
  7.300      2.55790e+02       1.64179e+01       1.77643e+00       5.69170e-04       4.17837e+02
  7.400      2.54978e+02       1.66005e+01       1.92633e+00       5.63420e-04       4.12303e+02
  7.500      2.54167e+02       1.67872e+01       2.09789e+00       5.57707e-04       4.06824e+02
  7.600      2.53357e+02       1.69801e+01       2.27421e+00       5.52031e-04       4.01400e+02
  7.700      2.52548e+02       1.71805e+01       2.43989e+00       5.46390e-04       3.96030e+02
  7.800      2.51742e+02       1.73853e+01       2.59322e+00       5.40782e-04       3.90715e+02
  7.900      2.50942e+02       1.75886e+01       2.73966e+00       5.35201e-04       3.85454e+02
  8.000      2.50152e+02       1.77847e+01       2.88479e+00       5.29642e-04       3.80249e+02
  8.100      2.49373e+02       1.79679e+01       3.03416e+00       5.24099e-04       3.75099e+02
  8.200      2.48610e+02       1.81335e+01       3.19105e+00       5.18569e-04       3.70004e+02
  8.300      2.47861e+02       1.82823e+01       3.34919e+00       5.13052e-04       3.64965e+02
  8.400      2.47126e+02       1.84165e+01       3.49975e+00       5.07550e-04       3.59980e+02
  8.500      2.46403e+02       1.85382e+01       3.63390e+00       5.02064e-04       3.55049e+02
  8.600      2.45693e+02       1.86496e+01       3.74283e+00       4.96597e-04       3.50170e+02
  8.700      2.44994e+02       1.87527e+01       3.82094e+00       4.91151e-04       3.45345e+02
  8.800      2.44302e+02       1.88486e+01       3.87696e+00       4.85734e-04       3.40571e+02
  8.900      2.43613e+02       1.89386e+01       3.92364e+00       4.80355e-04       3.35850e+02
  9.000      2.42923e+02       1.90238e+01       3.97369e+00       4.75024e-04       3.31181e+02
  9.100      2.42226e+02       1.91051e+01       4.03984e+00       4.69750e-04       3.26565e+02
  9.200      2.41519e+02       1.91836e+01       4.13425e+00       4.64540e-04       3.22001e+02
  9.300      2.40801e+02       1.92584e+01       4.26221e+00       4.59398e-04       3.17488e+02
  9.400      2.40069e+02       1.93276e+01       4.42447e+00       4.54322e-04       3.13027e+02
  9.500      2.39323e+02       1.93893e+01       4.62171e+00       4.49313e-04       3.08614e+02
  9.600      2.38563e+02       1.94413e+01       4.85461e+00       4.44370e-04       3.04249e+02
  9.700      2.37788e+02       1.94817e+01       5.12383e+00       4.39492e-04       2.99932e+02
  9.800      2.36997e+02       1.95130e+01       5.43006e+00       4.34679e-04       2.95661e+02
  9.900      2.36195e+02       1.95547e+01       5.77393e+00       4.29924e-04       2.91436e+02
 10.000      2.35383e+02       1.96303e+01       6.15608e+00       4.25220e-04       2.87257e+02
 10.100      2.34566e+02       1.97633e+01       6.57714e+00       4.20562e-04       2.83124e+02
 10.200      2.33748e+02       1.99773e+01       7.03773e+00       4.15943e-04       2.79037e+02
 10.300      2.32930e+02       2.02959e+01       7.53850e+00       4.11357e-04       2.74996e+02
 10.400      2.32118e+02       2.07352e+01       8.07721e+00       4.06798e-04       2.71001e+02
 10.500      2.31313e+02       2.12820e+01       8.64024e+00       4.02263e-04       2.67050e+02
 10.600      2.30518e+02       2.19161e+01       9.21111e+00       3.97748e-04       2.63145e+02
 10.700      2.29734e+02       2.26170e+01       9.77334e+00       3.93249e-04       2.59284e+02
 10.800      2.28965e+02       2.33642e+01       1.03104e+01       3.88762e-04       2.55467e+02
 10.900      2.28211e+02       2.41374e+01       1.08060e+01       3.84285e-04       2.51694e+02
 11.000      2.27475e+02       2.49163e+01       1.12441e+01       3.79815e-04       2.47964e+02
 11.100      2.26758e+02       2.56848e+01       1.16210e+01       3.75352e-04       2.44277e+02
 11.200      2.26055e+02       2.64305e+01       1.19439e+01       3.70902e-04       2.40633e+02
 11.300      2.25364e+02       2.71408e+01       1.22200e+01       3.66472e-04       2.37032e+02
 11.400      2.24684e+02       2.78035e+01       1.24567e+01       3.62065e-04       2.33475e+02
 11.500      2.24010e+02       2.84062e+01       1.26615e+01       3.57687e-04       2.29960e+02
 11.600      2.23340e+02       2.89364e+01       1.28415e+01       3.53342e-04       2.26488e+02
 11.700      2.22672e+02       2.93827e+01       1.30041e+01       3.49036e-04       2.23058e+02
 11.800      2.22005e+02       2.97491e+01       1.31519e+01       3.44770e-04       2.19671e+02
 11.900      2.21336e+02       3.00526e+01       1.32841e+01       3.40545e-04       2.16326e+02
 12.000      2.20667e+02       3.03107e+01       1.33995e+01       3.36361e-04       2.13022e+02
 12.100      2.19997e+02       3.05409e+01       1.34974e+01       3.32218e-04       2.09759e+02
 12.200      2.19324e+02       3.07605e+01       1.35765e+01       3.28117e-04       2.06537e+02
 12.300      2.18649e+02       3.09870e+01       1.36360e+01       3.24057e-04       2.03354e+02
 12.400      2.17971e+02       3.12379e+01       1.36747e+01       3.20040e-04       2.00210e+02
 12.500      2.17291e+02       3.15268e+01       1.36929e+01       3.16063e-04       1.97105e+02
 12.600      2.16613e+02       3.18496e+01       1.36958e+01       3.12121e-04       1.94039e+02
 12.700      2.15943e+02       3.21963e+01       1.36905e+01       3.08204e-04       1.91011e+02
 12.800      2.15288e+02       3.25572e+01       1.36840e+01       3.04304e-04       1.88022e+02
 12.900      2.14654e+02       3.29224e+01       1.36833e+01       3.00412e-04       1.85071e+02
 13.000      2.14047e+02       3.32821e+01       1.36955e+01       2.96523e-04       1.82159e+02
 13.100      2.13474e+02       3.36265e+01       1.37274e+01       2.92627e-04       1.79284e+02
 13.200      2.12940e+02       3.39458e+01       1.37862e+01       2.88718e-04       1.76446e+02
 13.300      2.12451e+02       3.42302e+01       1.38785e+01       2.84790e-04       1.73647e+02
 13.400      2.12011e+02       3.44714e+01       1.40030e+01       2.80843e-04       1.70885e+02
 13.500      2.11616e+02       3.46625e+01       1.41496e+01       2.76882e-04       1.68161e+02
 13.600      2.11266e+02       3.47969e+01       1.43083e+01       2.72914e-04       1.65476e+02
 13.700      2.10957e+02       3.48677e+01       1.44687e+01       2.68943e-04       1.62831e+02
 13.800      2.10688e+02       3.48683e+01       1.46207e+01       2.64976e-04       1.60225e+02
 13.900      2.10458e+02       3.47917e+01       1.47539e+01       2.61018e-04       1.57658e+02
 14.000      2.10263e+02       3.46314e+01       1.48582e+01       2.57074e-04       1.55132e+02
 14.100      2.10102e+02       3.43805e+01       1.49232e+01       2.53148e-04       1.52647e+02
 14.200      2.09974e+02       3.40323e+01       1.49388e+01       2.49246e-04       1.50202e+02
 14.300      2.09874e+02       3.35822e+01       1.48966e+01       2.45372e-04       1.47798e+02
 14.400      2.09801e+02       3.30376e+01       1.47975e+01       2.41530e-04       1.45432e+02
 14.500      2.09750e+02       3.24092e+01       1.46457e+01       2.37723e-04       1.43105e+02
 14.600      2.09717e+02       3.17081e+01       1.44451e+01       2.33954e-04       1.40814e+02
 14.700      2.09697e+02       3.09452e+01       1.42000e+01       2.30227e-04       1.38558e+02
 14.800      2.09686e+02       3.01315e+01       1.39142e+01       2.26545e-04       1.36335e+02
 14.900      2.09681e+02       2.92777e+01       1.35919e+01       2.22910e-04       1.34144e+02
 15.000      2.09676e+02       2.83950e+01       1.32371e+01       2.19325e-04       1.31983e+02
 15.100      2.09668e+02       2.74942e+01       1.28539e+01       2.15793e-04       1.29853e+02
 15.200      2.09653e+02       2.65862e+01       1.24463e+01       2.12315e-04       1.27751e+02
 15.300      2.09627e+02       2.56820e+01       1.20184e+01       2.08893e-04       1.25676e+02
 15.400      2.09585e+02       2.47920e+01       1.15743e+01       2.05529e-04       1.23628e+02
 15.500      2.09528e+02       2.39197e+01       1.11172e+01       2.02224e-04       1.21606e+02
 15.600      2.09458e+02       2.30644e+01       1.06500e+01       1.98975e-04       1.19613e+02
 15.700      2.09378e+02       2.22255e+01       1.01756e+01       1.95783e-04       1.17649e+02
 15.800      2.09291e+02       2.14020e+01       9.69699e+00       1.92645e-04       1.15715e+02
 15.900      2.09198e+02       2.05932e+01       9.21697e+00       1.89561e-04       1.13812e+02
 16.000      2.09104e+02       1.97984e+01       8.73846e+00       1.86530e-04       1.11942e+02
 16.100      2.09009e+02       1.90169e+01       8.26436e+00       1.83551e-04       1.10104e+02
 16.200      2.08917e+02       1.82477e+01       7.79755e+00       1.80622e-04       1.08300e+02
 16.300      2.08830e+02       1.74902e+01       7.34095e+00       1.77744e-04       1.06529e+02
 16.400      2.08752e+02       1.67437e+01       6.89743e+00       1.74914e-04       1.04794e+02
 16.500      2.08683e+02       1.60072e+01       6.46989e+00       1.72132e-04       1.03093e+02
 16.600      2.08628e+02       1.52801e+01       6.06123e+00       1.69397e-04       1.01429e+02
 16.700      2.08588e+02       1.45616e+01       5.67434e+00       1.66708e-04       9.97997e+01
 16.800      2.08566e+02       1.38513e+01       5.31125e+00       1.64065e-04       9.82067e+01
 16.900      2.08561e+02       1.31494e+01       4.97150e+00       1.61464e-04       9.66479e+01
 17.000      2.08573e+02       1.24567e+01       4.65426e+00       1.58906e-04       9.51219e+01
 17.100      2.08601e+02       1.17735e+01       4.35868e+00       1.56388e-04       9.36270e+01
 17.200      2.08644e+02       1.11004e+01       4.08392e+00       1.53909e-04       9.21618e+01
 17.300      2.08702e+02       1.04381e+01       3.82914e+00       1.51467e-04       9.07248e+01
 17.400      2.08774e+02       9.78687e+00       3.59347e+00       1.49061e-04       8.93148e+01
 17.500      2.08860e+02       9.14740e+00       3.37608e+00       1.46690e-04       8.79303e+01
 17.600      2.08959e+02       8.52020e+00       3.17612e+00       1.44353e-04       8.65703e+01
 17.700      2.09071e+02       7.90580e+00       2.99275e+00       1.42048e-04       8.52334e+01
 17.800      2.09194e+02       7.30474e+00       2.82511e+00       1.39774e-04       8.39186e+01
 17.900      2.09328e+02       6.71753e+00       2.67236e+00       1.37531e-04       8.26249e+01
 18.000      2.09474e+02       6.14473e+00       2.53365e+00       1.35317e-04       8.13511e+01
 18.100      2.09629e+02       5.58686e+00       2.40814e+00       1.33131e-04       8.00963e+01
 18.200      2.09794e+02       5.04446e+00       2.29498e+00       1.30972e-04       7.88596e+01
 18.300      2.09968e+02       4.51807e+00       2.19333e+00       1.28840e-04       7.76402e+01
 18.400      2.10150e+02       4.00820e+00       2.10233e+00       1.26734e-04       7.64370e+01
 18.500      2.10339e+02       3.51541e+00       2.02114e+00       1.24652e-04       7.52494e+01
 18.600      2.10536e+02       3.04023e+00       1.94891e+00       1.22595e-04       7.40766e+01
 18.700      2.10740e+02       2.58318e+00       1.88480e+00       1.20561e-04       7.29178e+01
 18.800      2.10949e+02       2.14482e+00       1.82797e+00       1.18549e-04       7.17725e+01
 18.900      2.11164e+02       1.72566e+00       1.77755e+00       1.16560e-04       7.06399e+01
 19.000      2.11383e+02       1.32621e+00       1.73272e+00       1.14592e-04       6.95194e+01
 19.100      2.11606e+02       9.46389e-01       1.69282e+00       1.12646e-04       6.84109e+01
 19.200      2.11834e+02       5.85326e-01       1.65743e+00       1.10722e-04       6.73151e+01
 19.300      2.12064e+02       2.42135e-01       1.62613e+00       1.08823e-04       6.62323e+01
 19.400      2.12296e+02      -8.40965e-02       1.59851e+00       1.06949e-04       6.51631e+01
 19.500      2.12531e+02      -3.94258e-01       1.57417e+00       1.05101e-04       6.41077e+01
 19.600      2.12766e+02      -6.89248e-01       1.55269e+00       1.03280e-04       6.30668e+01
 19.700      2.13002e+02      -9.69965e-01       1.53366e+00       1.01487e-04       6.20406e+01
 19.800      2.13239e+02      -1.23730e+00       1.51667e+00       9.97221e-05       6.10294e+01
 19.900      2.13475e+02      -1.49216e+00       1.50131e+00       9.79865e-05       6.00336e+01
 20.000      2.13709e+02      -1.73544e+00       1.48716e+00       9.62807e-05       5.90534e+01
 20.100      2.13942e+02      -1.96804e+00       1.47382e+00       9.46052e-05       5.80890e+01
 20.200      2.14173e+02      -2.19085e+00       1.46087e+00       9.29604e-05       5.71407e+01
 20.300      2.14402e+02      -2.40477e+00       1.44790e+00       9.13468e-05       5.62087e+01
