# Data Source: NASA MERRA (version 2)
# Model Time = 2011-04-11 18:00:00
# Location = [  39.1026,  -84.5123 ]
# Fields = [ Z(km), T(K), U(m/s), V(m/s), R(g/cm3), P(mbar) ]
# Ground Height = 0.165
  0.000      2.93366e+02       3.65866e+00       6.79261e+00       1.19668e-03       1.00756e+03
  0.100      2.92775e+02       3.33701e+00       6.68075e+00       1.18515e-03       9.95843e+02
  0.200      2.92147e+02       3.19095e+00       6.69355e+00       1.17389e-03       9.84263e+02
  0.300      2.91381e+02       3.71215e+00       7.17986e+00       1.16330e-03       9.72829e+02
  0.400      2.90451e+02       5.06699e+00       8.19962e+00       1.15348e-03       9.61534e+02
  0.500      2.89509e+02       6.67717e+00       9.15150e+00       1.14377e-03       9.50349e+02
  0.600      2.88692e+02       8.00030e+00       9.50033e+00       1.13361e-03       9.39251e+02
  0.700      2.87973e+02       9.10769e+00       9.40663e+00       1.12313e-03       9.28249e+02
  0.800      2.87279e+02       1.02213e+01       9.19562e+00       1.11264e-03       9.17358e+02
  0.900      2.86579e+02       1.13801e+01       8.92265e+00       1.10225e-03       9.06576e+02
  1.000      2.85862e+02       1.25166e+01       8.48671e+00       1.09198e-03       8.95891e+02
  1.100      2.85130e+02       1.35837e+01       7.85436e+00       1.08184e-03       8.85297e+02
  1.200      2.84396e+02       1.45642e+01       7.08601e+00       1.07177e-03       8.74797e+02
  1.300      2.83677e+02       1.54430e+01       6.24874e+00       1.06171e-03       8.64391e+02
  1.400      2.82986e+02       1.62049e+01       5.40959e+00       1.05161e-03       8.54084e+02
  1.500      2.82339e+02       1.68366e+01       4.63344e+00       1.04142e-03       8.43876e+02
  1.600      2.81735e+02       1.73521e+01       3.95261e+00       1.03115e-03       8.33768e+02
  1.700      2.81160e+02       1.77868e+01       3.37442e+00       1.02086e-03       8.23760e+02
  1.800      2.80601e+02       1.81764e+01       2.90554e+00       1.01059e-03       8.13851e+02
  1.900      2.80045e+02       1.85566e+01       2.55265e+00       1.00039e-03       8.04042e+02
  2.000      2.79480e+02       1.89611e+01       2.32255e+00       9.90307e-04       7.94332e+02
  2.100      2.78905e+02       1.93905e+01       2.22372e+00       9.80340e-04       7.84719e+02
  2.200      2.78330e+02       1.98186e+01       2.26605e+00       9.70452e-04       7.75204e+02
  2.300      2.77767e+02       2.02188e+01       2.45944e+00       9.60605e-04       7.65785e+02
  2.400      2.77225e+02       2.05642e+01       2.81382e+00       9.50763e-04       7.56461e+02
  2.500      2.76715e+02       2.08282e+01       3.33892e+00       9.40893e-04       7.47232e+02
  2.600      2.76241e+02       2.09999e+01       4.03181e+00       9.30986e-04       7.38096e+02
  2.700      2.75794e+02       2.10943e+01       4.86808e+00       9.21074e-04       7.29056e+02
  2.800      2.75364e+02       2.11294e+01       5.82126e+00       9.11192e-04       7.20111e+02
  2.900      2.74942e+02       2.11227e+01       6.86488e+00       9.01376e-04       7.11262e+02
  3.000      2.74519e+02       2.10921e+01       7.97248e+00       8.91656e-04       7.02509e+02
  3.100      2.74085e+02       2.10536e+01       9.11820e+00       8.82064e-04       6.93853e+02
  3.200      2.73636e+02       2.10062e+01       1.02825e+01       8.72612e-04       6.85293e+02
  3.300      2.73169e+02       2.09394e+01       1.14493e+01       8.63304e-04       6.76825e+02
  3.400      2.72681e+02       2.08422e+01       1.26026e+01       8.54143e-04       6.68447e+02
  3.500      2.72169e+02       2.07041e+01       1.37265e+01       8.45134e-04       6.60157e+02
  3.600      2.71633e+02       2.05141e+01       1.48051e+01       8.36279e-04       6.51952e+02
  3.700      2.71069e+02       2.02644e+01       1.58244e+01       8.27579e-04       6.43830e+02
  3.800      2.70484e+02       1.99716e+01       1.67889e+01       8.19013e-04       6.35790e+02
  3.900      2.69887e+02       1.96646e+01       1.77119e+01       8.10551e-04       6.27833e+02
  4.000      2.69288e+02       1.93721e+01       1.86070e+01       8.02165e-04       6.19959e+02
  4.100      2.68698e+02       1.91230e+01       1.94877e+01       7.93825e-04       6.12167e+02
  4.200      2.68124e+02       1.89462e+01       2.03675e+01       7.85504e-04       6.04458e+02
  4.300      2.67578e+02       1.88704e+01       2.12595e+01       7.77176e-04       5.96831e+02
  4.400      2.67061e+02       1.89128e+01       2.21657e+01       7.68835e-04       5.89285e+02
  4.500      2.66569e+02       1.90775e+01       2.30740e+01       7.60498e-04       5.81822e+02
  4.600      2.66097e+02       1.93671e+01       2.39715e+01       7.52181e-04       5.74438e+02
  4.700      2.65638e+02       1.97846e+01       2.48453e+01       7.43901e-04       5.67135e+02
  4.800      2.65186e+02       2.03330e+01       2.56824e+01       7.35676e-04       5.59912e+02
  4.900      2.64737e+02       2.10150e+01       2.64700e+01       7.27521e-04       5.52768e+02
  5.000      2.64285e+02       2.18329e+01       2.71956e+01       7.19449e-04       5.45702e+02
  5.100      2.63827e+02       2.27780e+01       2.78552e+01       7.11469e-04       5.38713e+02
  5.200      2.63362e+02       2.38338e+01       2.84511e+01       7.03582e-04       5.31802e+02
  5.300      2.62890e+02       2.49834e+01       2.89855e+01       6.95788e-04       5.24968e+02
  5.400      2.62410e+02       2.62099e+01       2.94607e+01       6.88088e-04       5.18210e+02
  5.500      2.61921e+02       2.74966e+01       2.98792e+01       6.80484e-04       5.11528e+02
  5.600      2.61422e+02       2.88266e+01       3.02432e+01       6.72975e-04       5.04921e+02
  5.700      2.60913e+02       3.01830e+01       3.05551e+01       6.65564e-04       4.98388e+02
  5.800      2.60393e+02       3.15478e+01       3.08184e+01       6.58251e-04       4.91929e+02
  5.900      2.59858e+02       3.29006e+01       3.10389e+01       6.51040e-04       4.85541e+02
  6.000      2.59307e+02       3.42207e+01       3.12230e+01       6.43934e-04       4.79222e+02
  6.100      2.58735e+02       3.54874e+01       3.13767e+01       6.36936e-04       4.72970e+02
  6.200      2.58142e+02       3.66799e+01       3.15062e+01       6.30049e-04       4.66782e+02
  6.300      2.57523e+02       3.77777e+01       3.16176e+01       6.23275e-04       4.60657e+02
  6.400      2.56876e+02       3.87600e+01       3.17172e+01       6.16618e-04       4.54592e+02
  6.500      2.56198e+02       3.96063e+01       3.18110e+01       6.10081e-04       4.48585e+02
  6.600      2.55490e+02       4.03079e+01       3.19007e+01       6.03660e-04       4.42637e+02
  6.700      2.54757e+02       4.08812e+01       3.19788e+01       5.97344e-04       4.36749e+02
  6.800      2.54005e+02       4.13449e+01       3.20367e+01       5.91122e-04       4.30925e+02
  6.900      2.53242e+02       4.17182e+01       3.20659e+01       5.84979e-04       4.25165e+02
  7.000      2.52473e+02       4.20200e+01       3.20578e+01       5.78906e-04       4.19474e+02
  7.100      2.51706e+02       4.22693e+01       3.20037e+01       5.72889e-04       4.13852e+02
  7.200      2.50946e+02       4.24852e+01       3.18953e+01       5.66918e-04       4.08302e+02
  7.300      2.50200e+02       4.26866e+01       3.17238e+01       5.60981e-04       4.02826e+02
  7.400      2.49475e+02       4.28921e+01       3.14809e+01       5.55067e-04       3.97425e+02
  7.500      2.48772e+02       4.31059e+01       3.11643e+01       5.49171e-04       3.92094e+02
  7.600      2.48085e+02       4.33177e+01       3.07780e+01       5.43290e-04       3.86826e+02
  7.700      2.47412e+02       4.35162e+01       3.03263e+01       5.37423e-04       3.81609e+02
  7.800      2.46747e+02       4.36903e+01       2.98134e+01       5.31567e-04       3.76437e+02
  7.900      2.46086e+02       4.38287e+01       2.92436e+01       5.25721e-04       3.71300e+02
  8.000      2.45425e+02       4.39204e+01       2.86213e+01       5.19885e-04       3.66191e+02
  8.100      2.44758e+02       4.39541e+01       2.79506e+01       5.14056e-04       3.61102e+02
  8.200      2.44082e+02       4.39187e+01       2.72360e+01       5.08236e-04       3.56027e+02
  8.300      2.43391e+02       4.38029e+01       2.64816e+01       5.02421e-04       3.50958e+02
  8.400      2.42683e+02       4.35975e+01       2.56930e+01       4.96617e-04       3.45893e+02
  8.500      2.41955e+02       4.33063e+01       2.48841e+01       4.90846e-04       3.40850e+02
  8.600      2.41211e+02       4.29391e+01       2.40726e+01       4.85142e-04       3.35852e+02
  8.700      2.40451e+02       4.25056e+01       2.32760e+01       4.79535e-04       3.30924e+02
  8.800      2.39676e+02       4.20155e+01       2.25122e+01       4.74054e-04       3.26088e+02
  8.900      2.38888e+02       4.14785e+01       2.17986e+01       4.68729e-04       3.21365e+02
  9.000      2.38088e+02       4.09044e+01       2.11530e+01       4.63586e-04       3.16774e+02
  9.100      2.37276e+02       4.03028e+01       2.05930e+01       4.58651e-04       3.12334e+02
  9.200      2.36456e+02       3.96835e+01       2.01363e+01       4.53947e-04       3.08062e+02
  9.300      2.35627e+02       3.90562e+01       1.98005e+01       4.49500e-04       3.03974e+02
  9.400      2.34792e+02       3.84306e+01       1.96033e+01       4.45330e-04       3.00087e+02
  9.500      2.33951e+02       3.78153e+01       1.95566e+01       4.41452e-04       2.96408e+02
  9.600      2.33108e+02       3.72141e+01       1.96472e+01       4.37835e-04       2.92921e+02
  9.700      2.32268e+02       3.66296e+01       1.98556e+01       4.34441e-04       2.89603e+02
  9.800      2.31435e+02       3.60644e+01       2.01621e+01       4.31232e-04       2.86432e+02
  9.900      2.30612e+02       3.55210e+01       2.05470e+01       4.28172e-04       2.83389e+02
 10.000      2.29805e+02       3.50019e+01       2.09906e+01       4.25224e-04       2.80452e+02
 10.100      2.29016e+02       3.45098e+01       2.14733e+01       4.22354e-04       2.77603e+02
 10.200      2.28251e+02       3.40471e+01       2.19754e+01       4.19529e-04       2.74825e+02
 10.300      2.27512e+02       3.36165e+01       2.24771e+01       4.16715e-04       2.72098e+02
 10.400      2.26805e+02       3.32204e+01       2.29589e+01       4.13881e-04       2.69408e+02
 10.500      2.26134e+02       3.28615e+01       2.34011e+01       4.10994e-04       2.66736e+02
 10.600      2.25502e+02       3.25422e+01       2.37839e+01       4.08024e-04       2.64069e+02
 10.700      2.24913e+02       3.22652e+01       2.40878e+01       4.04942e-04       2.61390e+02
 10.800      2.24373e+02       3.20329e+01       2.42930e+01       4.01718e-04       2.58686e+02
 10.900      2.23884e+02       3.18480e+01       2.43798e+01       3.98326e-04       2.55944e+02
 11.000      2.23452e+02       3.17130e+01       2.43287e+01       3.94739e-04       2.53149e+02
 11.100      2.23079e+02       3.16305e+01       2.41199e+01       3.90932e-04       2.50290e+02
 11.200      2.22770e+02       3.16013e+01       2.37386e+01       3.86887e-04       2.47356e+02
 11.300      2.22518e+02       3.16183e+01       2.31964e+01       3.82616e-04       2.44349e+02
 11.400      2.22315e+02       3.16709e+01       2.25137e+01       3.78142e-04       2.41271e+02
 11.500      2.22154e+02       3.17491e+01       2.17111e+01       3.73485e-04       2.38127e+02
 11.600      2.22027e+02       3.18424e+01       2.08089e+01       3.68667e-04       2.34921e+02
 11.700      2.21925e+02       3.19408e+01       1.98276e+01       3.63709e-04       2.31655e+02
 11.800      2.21841e+02       3.20338e+01       1.87876e+01       3.58631e-04       2.28335e+02
 11.900      2.21767e+02       3.21113e+01       1.77095e+01       3.53454e-04       2.24963e+02
 12.000      2.21695e+02       3.21629e+01       1.66136e+01       3.48196e-04       2.21544e+02
 12.100      2.21616e+02       3.21784e+01       1.55204e+01       3.42875e-04       2.18082e+02
 12.200      2.21523e+02       3.21475e+01       1.44504e+01       3.37510e-04       2.14579e+02
 12.300      2.21408e+02       3.20601e+01       1.34240e+01       3.32118e-04       2.11041e+02
 12.400      2.21263e+02       3.19057e+01       1.24617e+01       3.26713e-04       2.07471e+02
 12.500      2.21080e+02       3.16741e+01       1.15839e+01       3.21312e-04       2.03872e+02
 12.600      2.20851e+02       3.13551e+01       1.08111e+01       3.15929e-04       2.00249e+02
 12.700      2.20570e+02       3.09411e+01       1.01595e+01       3.10577e-04       1.96606e+02
 12.800      2.20239e+02       3.04377e+01       9.62475e+00       3.05266e-04       1.92954e+02
 12.900      2.19866e+02       2.98545e+01       9.19620e+00       3.00003e-04       1.89306e+02
 13.000      2.19454e+02       2.92012e+01       8.86314e+00       2.94797e-04       1.85673e+02
 13.100      2.19010e+02       2.84873e+01       8.61487e+00       2.89653e-04       1.82064e+02
 13.200      2.18540e+02       2.77226e+01       8.44072e+00       2.84580e-04       1.78492e+02
 13.300      2.18050e+02       2.69166e+01       8.32999e+00       2.79582e-04       1.74963e+02
 13.400      2.17544e+02       2.60790e+01       8.27198e+00       2.74665e-04       1.71488e+02
 13.500      2.17030e+02       2.52195e+01       8.25602e+00       2.69834e-04       1.68073e+02
 13.600      2.16512e+02       2.43476e+01       8.27140e+00       2.65093e-04       1.64726e+02
 13.700      2.15996e+02       2.34731e+01       8.30745e+00       2.60446e-04       1.61453e+02
 13.800      2.15489e+02       2.26055e+01       8.35346e+00       2.55897e-04       1.58260e+02
 13.900      2.14995e+02       2.17544e+01       8.39876e+00       2.51449e-04       1.55153e+02
 14.000      2.14520e+02       2.09296e+01       8.43264e+00       2.47105e-04       1.52136e+02
 14.100      2.14071e+02       2.01407e+01       8.44447e+00       2.42867e-04       1.49214e+02
 14.200      2.13650e+02       1.93933e+01       8.42779e+00       2.38735e-04       1.46387e+02
 14.300      2.13257e+02       1.86862e+01       8.38383e+00       2.34706e-04       1.43651e+02
 14.400      2.12890e+02       1.80175e+01       8.31462e+00       2.30775e-04       1.41002e+02
 14.500      2.12548e+02       1.73851e+01       8.22220e+00       2.26938e-04       1.38436e+02
 14.600      2.12230e+02       1.67870e+01       8.10861e+00       2.23193e-04       1.35947e+02
 14.700      2.11934e+02       1.62213e+01       7.97588e+00       2.19535e-04       1.33533e+02
 14.800      2.11659e+02       1.56859e+01       7.82606e+00       2.15962e-04       1.31189e+02
 14.900      2.11404e+02       1.51789e+01       7.66119e+00       2.12470e-04       1.28912e+02
 15.000      2.11167e+02       1.46983e+01       7.48329e+00       2.09056e-04       1.26698e+02
 15.100      2.10947e+02       1.42420e+01       7.29441e+00       2.05718e-04       1.24545e+02
 15.200      2.10743e+02       1.38081e+01       7.09660e+00       2.02452e-04       1.22449e+02
 15.300      2.10553e+02       1.33945e+01       6.89187e+00       1.99256e-04       1.20408e+02
 15.400      2.10375e+02       1.29993e+01       6.68228e+00       1.96127e-04       1.18417e+02
 15.500      2.10210e+02       1.26205e+01       6.46986e+00       1.93064e-04       1.16476e+02
 15.600      2.10055e+02       1.22561e+01       6.25664e+00       1.90063e-04       1.14581e+02
 15.700      2.09908e+02       1.19041e+01       6.04468e+00       1.87123e-04       1.12730e+02
 15.800      2.09770e+02       1.15624e+01       5.83599e+00       1.84241e-04       1.10920e+02
 15.900      2.09637e+02       1.12291e+01       5.63263e+00       1.81415e-04       1.09150e+02
 16.000      2.09510e+02       1.09023e+01       5.43663e+00       1.78643e-04       1.07417e+02
 16.100      2.09386e+02       1.05798e+01       5.25003e+00       1.75924e-04       1.05719e+02
 16.200      2.09265e+02       1.02597e+01       5.07487e+00       1.73255e-04       1.04055e+02
 16.300      2.09144e+02       9.94007e+00       4.91318e+00       1.70635e-04       1.02423e+02
 16.400      2.09023e+02       9.61882e+00       4.76700e+00       1.68063e-04       1.00820e+02
 16.500      2.08900e+02       9.29403e+00       4.63830e+00       1.65535e-04       9.92457e+01
 16.600      2.08776e+02       8.96469e+00       4.52737e+00       1.63052e-04       9.76983e+01
 16.700      2.08650e+02       8.63084e+00       4.43273e+00       1.60610e-04       9.61769e+01
 16.800      2.08523e+02       8.29257e+00       4.35280e+00       1.58207e-04       9.46805e+01
 16.900      2.08397e+02       7.94992e+00       4.28601e+00       1.55841e-04       9.32083e+01
 17.000      2.08271e+02       7.60299e+00       4.23080e+00       1.53511e-04       9.17593e+01
 17.100      2.08148e+02       7.25184e+00       4.18560e+00       1.51214e-04       9.03327e+01
 17.200      2.08027e+02       6.89656e+00       4.14884e+00       1.48949e-04       8.89279e+01
 17.300      2.07909e+02       6.53721e+00       4.11894e+00       1.46714e-04       8.75439e+01
 17.400      2.07795e+02       6.17387e+00       4.09434e+00       1.44507e-04       8.61801e+01
 17.500      2.07686e+02       5.80662e+00       4.07348e+00       1.42328e-04       8.48358e+01
 17.600      2.07583e+02       5.43552e+00       4.05477e+00       1.40174e-04       8.35102e+01
 17.700      2.07485e+02       5.06065e+00       4.03666e+00       1.38044e-04       8.22029e+01
 17.800      2.07395e+02       4.68210e+00       4.01757e+00       1.35937e-04       8.09132e+01
 17.900      2.07313e+02       4.29992e+00       3.99594e+00       1.33852e-04       7.96404e+01
 18.000      2.07239e+02       3.91420e+00       3.97019e+00       1.31788e-04       7.83840e+01
 18.100      2.07174e+02       3.52501e+00       3.93876e+00       1.29742e-04       7.71435e+01
 18.200      2.07120e+02       3.13242e+00       3.90007e+00       1.27716e-04       7.59185e+01
 18.300      2.07076e+02       2.73652e+00       3.85257e+00       1.25706e-04       7.47083e+01
 18.400      2.07044e+02       2.33736e+00       3.79467e+00       1.23714e-04       7.35126e+01
 18.500      2.07024e+02       1.93503e+00       3.72481e+00       1.21737e-04       7.23309e+01
 18.600      2.07017e+02       1.52961e+00       3.64142e+00       1.19774e-04       7.11628e+01
 18.700      2.07024e+02       1.12116e+00       3.54294e+00       1.17827e-04       7.00079e+01
 18.800      2.07046e+02       7.09907e-01       3.42828e+00       1.15893e-04       6.88660e+01
 18.900      2.07081e+02       2.96632e-01       3.29840e+00       1.13974e-04       6.77374e+01
 19.000      2.07129e+02      -1.17722e-01       3.15477e+00       1.12072e-04       6.66226e+01
 19.100      2.07189e+02      -5.32214e-01       2.99885e+00       1.10189e-04       6.55220e+01
 19.200      2.07261e+02      -9.45908e-01       2.83211e+00       1.08326e-04       6.44361e+01
 19.300      2.07342e+02      -1.35786e+00       2.65601e+00       1.06483e-04       6.33653e+01
 19.400      2.07433e+02      -1.76714e+00       2.47203e+00       1.04664e-04       6.23098e+01
 19.500      2.07532e+02      -2.17280e+00       2.28163e+00       1.02868e-04       6.12699e+01
 19.600      2.07639e+02      -2.57392e+00       2.08627e+00       1.01097e-04       6.02459e+01
 19.700      2.07752e+02      -2.96954e+00       1.88742e+00       9.93514e-05       5.92382e+01
 19.800      2.07871e+02      -3.35872e+00       1.68656e+00       9.76326e-05       5.82468e+01
 19.900      2.07996e+02      -3.74055e+00       1.48514e+00       9.59413e-05       5.72719e+01
 20.000      2.08124e+02      -4.11406e+00       1.28464e+00       9.42782e-05       5.63138e+01
 20.100      2.08255e+02      -4.47833e+00       1.08651e+00       9.26439e-05       5.53726e+01
 20.200      2.08389e+02      -4.83242e+00       8.92231e-01       9.10391e-05       5.44484e+01
 20.300      2.08524e+02      -5.17537e+00       7.03269e-01       8.94643e-05       5.35412e+01
