# Data Source: NASA GEOS5 Near-Real-Time
# Model Time = 2010-06-01 18:00:00
# Location = [  39.7393, -104.9900 ]
# Fields = [ Z(km), T(K), U(m/s), V(m/s), R(g/cm3), P(mbar) ]
# Ground Height = 1.589
  0.000      3.06986e+02       2.10323e+00       7.04841e-01       1.14286e-03       1.00692e+03
  0.100      3.06348e+02       2.08516e+00       6.92000e-01       1.13187e-03       9.95158e+02
  0.200      3.05705e+02       2.06742e+00       6.86328e-01       1.12100e-03       9.83537e+02
  0.300      3.05050e+02       2.05087e+00       7.04934e-01       1.11030e-03       9.72057e+02
  0.400      3.04383e+02       2.03869e+00       7.37869e-01       1.09975e-03       9.60719e+02
  0.500      3.03722e+02       2.03852e+00       7.23705e-01       1.08930e-03       9.49521e+02
  0.600      3.03082e+02       2.05426e+00       6.23863e-01       1.07888e-03       9.38461e+02
  0.700      3.02450e+02       2.07482e+00       5.00417e-01       1.06855e-03       9.27538e+02
  0.800      3.01811e+02       2.08759e+00       4.27857e-01       1.05836e-03       9.16752e+02
  0.900      3.01165e+02       2.09462e+00       4.00622e-01       1.04831e-03       9.06098e+02
  1.000      3.00523e+02       2.10482e+00       3.74446e-01       1.03834e-03       8.95571e+02
  1.100      2.99892e+02       2.11504e+00       3.30800e-01       1.02844e-03       8.85169e+02
  1.200      2.99286e+02       2.10726e+00       2.83032e-01       1.01856e-03       8.74896e+02
  1.300      2.98705e+02       2.07547e+00       2.44071e-01       1.00871e-03       8.64754e+02
  1.400      2.98110e+02       2.06366e+00       2.17655e-01       9.99023e-04       8.54740e+02
  1.500      2.97456e+02       2.12607e+00       2.05229e-01       9.89637e-04       8.44852e+02
  1.600      2.96729e+02       2.27840e+00       2.06873e-01       9.80588e-04       8.35082e+02
  1.700      2.95949e+02       2.49993e+00       2.21380e-01       9.71798e-04       8.25420e+02
  1.800      2.95137e+02       2.76612e+00       2.46666e-01       9.63184e-04       8.15858e+02
  1.900      2.94319e+02       3.04153e+00       2.76881e-01       9.54657e-04       8.06395e+02
  2.000      2.93524e+02       3.28793e+00       3.05190e-01       9.46126e-04       7.97030e+02
  2.100      2.92761e+02       3.48982e+00       3.30465e-01       9.37563e-04       7.87763e+02
  2.200      2.92006e+02       3.66829e+00       3.60799e-01       9.29040e-04       7.78588e+02
  2.300      2.91234e+02       3.84616e+00       4.04360e-01       9.20631e-04       7.69503e+02
  2.400      2.90443e+02       4.02277e+00       4.58236e-01       9.12345e-04       7.60505e+02
  2.500      2.89644e+02       4.17967e+00       5.11120e-01       9.04142e-04       7.51594e+02
  2.600      2.88848e+02       4.30273e+00       5.54084e-01       8.95990e-04       7.42772e+02
  2.700      2.88040e+02       4.41101e+00       5.96149e-01       8.87935e-04       7.34034e+02
  2.800      2.87196e+02       4.53757e+00       6.53939e-01       8.80045e-04       7.25379e+02
  2.900      2.86297e+02       4.70806e+00       7.39805e-01       8.72372e-04       7.16804e+02
  3.000      2.85359e+02       4.91386e+00       8.46463e-01       8.64864e-04       7.08306e+02
  3.100      2.84405e+02       5.13657e+00       9.61027e-01       8.57445e-04       6.99882e+02
  3.200      2.83455e+02       5.36150e+00       1.07350e+00       8.50051e-04       6.91530e+02
  3.300      2.82516e+02       5.58816e+00       1.18495e+00       8.42667e-04       6.83251e+02
  3.400      2.81590e+02       5.81943e+00       1.29909e+00       8.35285e-04       6.75047e+02
  3.500      2.80679e+02       6.05651e+00       1.41915e+00       8.27905e-04       6.66918e+02
  3.600      2.79777e+02       6.29361e+00       1.54624e+00       8.20543e-04       6.58863e+02
  3.700      2.78877e+02       6.52320e+00       1.68096e+00       8.13217e-04       6.50881e+02
  3.800      2.77973e+02       6.73950e+00       1.82313e+00       8.05947e-04       6.42971e+02
  3.900      2.77058e+02       6.94667e+00       1.96822e+00       7.98748e-04       6.35131e+02
  4.000      2.76128e+02       7.15234e+00       2.11018e+00       7.91634e-04       6.27360e+02
  4.100      2.75178e+02       7.36399e+00       2.24385e+00       7.84616e-04       6.19658e+02
  4.200      2.74212e+02       7.58784e+00       2.37367e+00       7.77678e-04       6.12023e+02
  4.300      2.73241e+02       7.82929e+00       2.50978e+00       7.70791e-04       6.04456e+02
  4.400      2.72276e+02       8.09356e+00       2.66211e+00       7.63926e-04       5.96956e+02
  4.500      2.71322e+02       8.37837e+00       2.82923e+00       7.57066e-04       5.89523e+02
  4.600      2.70382e+02       8.67191e+00       2.99523e+00       7.50209e-04       5.82158e+02
  4.700      2.69455e+02       8.96173e+00       3.14329e+00       7.43355e-04       5.74864e+02
  4.800      2.68544e+02       9.24330e+00       3.26264e+00       7.36505e-04       5.67640e+02
  4.900      2.67643e+02       9.54200e+00       3.36563e+00       7.29668e-04       5.60483e+02
  5.000      2.66748e+02       9.89028e+00       3.47006e+00       7.22854e-04       5.53392e+02
  5.100      2.65854e+02       1.03197e+01       3.59293e+00       7.16072e-04       5.46364e+02
  5.200      2.64968e+02       1.08422e+01       3.73449e+00       7.09307e-04       5.39398e+02
  5.300      2.64104e+02       1.14515e+01       3.87900e+00       7.02522e-04       5.32497e+02
  5.400      2.63279e+02       1.21404e+01       4.01009e+00       6.95679e-04       5.25664e+02
  5.500      2.62507e+02       1.29000e+01       4.11325e+00       6.88749e-04       5.18899e+02
  5.600      2.61789e+02       1.37127e+01       4.18383e+00       6.81727e-04       5.12205e+02
  5.700      2.61125e+02       1.45580e+01       4.22051e+00       6.74620e-04       5.05580e+02
  5.800      2.60515e+02       1.54154e+01       4.22197e+00       6.67433e-04       4.99025e+02
  5.900      2.59953e+02       1.62573e+01       4.18828e+00       6.60183e-04       4.92539e+02
  6.000      2.59422e+02       1.70375e+01       4.12314e+00       6.52917e-04       4.86125e+02
  6.100      2.58905e+02       1.77073e+01       4.03080e+00       6.45683e-04       4.79780e+02
  6.200      2.58384e+02       1.82178e+01       3.91554e+00       6.38528e-04       4.73508e+02
  6.300      2.57843e+02       1.85466e+01       3.78514e+00       6.31487e-04       4.67306e+02
  6.400      2.57276e+02       1.87240e+01       3.65433e+00       6.24572e-04       4.61173e+02
  6.500      2.56677e+02       1.87866e+01       3.53866e+00       6.17794e-04       4.55106e+02
  6.600      2.56041e+02       1.87708e+01       3.45370e+00       6.11162e-04       4.49104e+02
  6.700      2.55364e+02       1.87101e+01       3.41184e+00       6.04678e-04       4.43165e+02
  6.800      2.54655e+02       1.86302e+01       3.41741e+00       5.98319e-04       4.37288e+02
  6.900      2.53924e+02       1.85556e+01       3.47343e+00       5.92063e-04       4.31472e+02
  7.000      2.53178e+02       1.85107e+01       3.58293e+00       5.85885e-04       4.25717e+02
  7.100      2.52428e+02       1.85172e+01       3.74683e+00       5.79765e-04       4.20022e+02
  7.200      2.51675e+02       1.85801e+01       3.95382e+00       5.73697e-04       4.14386e+02
  7.300      2.50921e+02       1.86986e+01       4.18811e+00       5.67679e-04       4.08809e+02
  7.400      2.50165e+02       1.88719e+01       4.43393e+00       5.61708e-04       4.03292e+02
  7.500      2.49410e+02       1.90989e+01       4.67569e+00       5.55784e-04       3.97833e+02
  7.600      2.48653e+02       1.93686e+01       4.90534e+00       5.49907e-04       3.92432e+02
  7.700      2.47892e+02       1.96570e+01       5.12465e+00       5.44083e-04       3.87089e+02
  7.800      2.47125e+02       1.99395e+01       5.33606e+00       5.38318e-04       3.81802e+02
  7.900      2.46349e+02       2.01912e+01       5.54201e+00       5.32616e-04       3.76571e+02
  8.000      2.45560e+02       2.03893e+01       5.74489e+00       5.26982e-04       3.71395e+02
  8.100      2.44760e+02       2.05304e+01       5.94678e+00       5.21413e-04       3.66273e+02
  8.200      2.43953e+02       2.06233e+01       6.14952e+00       5.15902e-04       3.61205e+02
  8.300      2.43140e+02       2.06764e+01       6.35498e+00       5.10441e-04       3.56192e+02
  8.400      2.42326e+02       2.06983e+01       6.56501e+00       5.05024e-04       3.51231e+02
  8.500      2.41512e+02       2.06979e+01       6.78083e+00       4.99644e-04       3.46323e+02
  8.600      2.40700e+02       2.06839e+01       6.99813e+00       4.94302e-04       3.41468e+02
  8.700      2.39887e+02       2.06652e+01       7.20973e+00       4.89001e-04       3.36665e+02
  8.800      2.39073e+02       2.06509e+01       7.40844e+00       4.83741e-04       3.31914e+02
  8.900      2.38255e+02       2.06499e+01       7.58706e+00       4.78527e-04       3.27213e+02
  9.000      2.37433e+02       2.06709e+01       7.73864e+00       4.73360e-04       3.22563e+02
  9.100      2.36606e+02       2.07166e+01       7.86110e+00       4.68242e-04       3.17964e+02
  9.200      2.35771e+02       2.07842e+01       7.95695e+00       4.63175e-04       3.13414e+02
  9.300      2.34928e+02       2.08706e+01       8.02885e+00       4.58161e-04       3.08913e+02
  9.400      2.34076e+02       2.09728e+01       8.07947e+00       4.53201e-04       3.04460e+02
  9.500      2.33214e+02       2.10878e+01       8.11149e+00       4.48297e-04       3.00056e+02
  9.600      2.32341e+02       2.12129e+01       8.12814e+00       4.43448e-04       2.95699e+02
  9.700      2.31461e+02       2.13475e+01       8.13502e+00       4.38646e-04       2.91390e+02
  9.800      2.30581e+02       2.14912e+01       8.13833e+00       4.33881e-04       2.87128e+02
  9.900      2.29704e+02       2.16438e+01       8.14428e+00       4.29144e-04       2.82913e+02
 10.000      2.28836e+02       2.18051e+01       8.15908e+00       4.24424e-04       2.78745e+02
 10.100      2.27982e+02       2.19746e+01       8.18893e+00       4.19714e-04       2.74623e+02
 10.200      2.27146e+02       2.21522e+01       8.24130e+00       4.15007e-04       2.70547e+02
 10.300      2.26325e+02       2.23371e+01       8.32756e+00       4.10309e-04       2.66517e+02
 10.400      2.25513e+02       2.25284e+01       8.45976e+00       4.05631e-04       2.62533e+02
 10.500      2.24707e+02       2.27256e+01       8.64999e+00       4.00978e-04       2.58595e+02
 10.600      2.23903e+02       2.29278e+01       8.91032e+00       3.96360e-04       2.54701e+02
 10.700      2.23095e+02       2.31343e+01       9.25283e+00       3.91783e-04       2.50852e+02
 10.800      2.22281e+02       2.33449e+01       9.68683e+00       3.87254e-04       2.47047e+02
 10.900      2.21461e+02       2.35633e+01       1.01996e+01       3.82772e-04       2.43287e+02
 11.000      2.20639e+02       2.37957e+01       1.07677e+01       3.78329e-04       2.39571e+02
 11.100      2.19818e+02       2.40477e+01       1.13680e+01       3.73920e-04       2.35898e+02
 11.200      2.19001e+02       2.43254e+01       1.19770e+01       3.69540e-04       2.32268e+02
 11.300      2.18192e+02       2.46345e+01       1.25713e+01       3.65183e-04       2.28682e+02
 11.400      2.17394e+02       2.49811e+01       1.31277e+01       3.60845e-04       2.25138e+02
 11.500      2.16610e+02       2.53675e+01       1.36248e+01       3.56519e-04       2.21637e+02
 11.600      2.15846e+02       2.57805e+01       1.40502e+01       3.52198e-04       2.18179e+02
 11.700      2.15107e+02       2.62024e+01       1.43943e+01       3.47875e-04       2.14763e+02
 11.800      2.14398e+02       2.66157e+01       1.46473e+01       3.43542e-04       2.11389e+02
 11.900      2.13725e+02       2.70027e+01       1.47995e+01       3.39193e-04       2.08058e+02
 12.000      2.13093e+02       2.73457e+01       1.48411e+01       3.34821e-04       2.04769e+02
 12.100      2.12507e+02       2.76273e+01       1.47625e+01       3.30419e-04       2.01521e+02
 12.200      2.11973e+02       2.78304e+01       1.45547e+01       3.25982e-04       1.98315e+02
 12.300      2.11497e+02       2.79530e+01       1.42261e+01       3.21504e-04       1.95152e+02
 12.400      2.11085e+02       2.80069e+01       1.38010e+01       3.16981e-04       1.92032e+02
 12.500      2.10744e+02       2.80043e+01       1.33042e+01       3.12410e-04       1.88956e+02
 12.600      2.10479e+02       2.79575e+01       1.27607e+01       3.07786e-04       1.85926e+02
 12.700      2.10298e+02       2.78787e+01       1.21955e+01       3.03106e-04       1.82941e+02
 12.800      2.10207e+02       2.77803e+01       1.16335e+01       2.98368e-04       1.80004e+02
 12.900      2.10212e+02       2.76746e+01       1.10996e+01       2.93571e-04       1.77114e+02
 13.000      2.10320e+02       2.75736e+01       1.06186e+01       2.88712e-04       1.74272e+02
 13.100      2.10529e+02       2.74810e+01       1.02041e+01       2.83801e-04       1.71478e+02
 13.200      2.10825e+02       2.73841e+01       9.84831e+00       2.78865e-04       1.68732e+02
 13.300      2.11191e+02       2.72682e+01       9.54099e+00       2.73931e-04       1.66034e+02
 13.400      2.11608e+02       2.71187e+01       9.27194e+00       2.69026e-04       1.63384e+02
 13.500      2.12062e+02       2.69211e+01       9.03095e+00       2.64172e-04       1.60780e+02
 13.600      2.12535e+02       2.66607e+01       8.80779e+00       2.59393e-04       1.58223e+02
 13.700      2.13009e+02       2.63230e+01       8.59226e+00       2.54708e-04       1.55712e+02
 13.800      2.13469e+02       2.58932e+01       8.37415e+00       2.50136e-04       1.53247e+02
 13.900      2.13897e+02       2.53569e+01       8.14324e+00       2.45694e-04       1.50828e+02
 14.000      2.14278e+02       2.47011e+01       7.89005e+00       2.41396e-04       1.48453e+02
 14.100      2.14606e+02       2.39328e+01       7.61397e+00       2.37242e-04       1.46122e+02
 14.200      2.14885e+02       2.30722e+01       7.32033e+00       2.33222e-04       1.43833e+02
 14.300      2.15118e+02       2.21400e+01       7.01454e+00       2.29325e-04       1.41583e+02
 14.400      2.15307e+02       2.11568e+01       6.70204e+00       2.25544e-04       1.39370e+02
 14.500      2.15455e+02       2.01431e+01       6.38826e+00       2.21869e-04       1.37194e+02
 14.600      2.15566e+02       1.91196e+01       6.07863e+00       2.18292e-04       1.35052e+02
 14.700      2.15643e+02       1.81067e+01       5.77858e+00       2.14807e-04       1.32943e+02
 14.800      2.15688e+02       1.71251e+01       5.49354e+00       2.11405e-04       1.30865e+02
 14.900      2.15705e+02       1.61954e+01       5.22893e+00       2.08080e-04       1.28817e+02
 15.000      2.15697e+02       1.53382e+01       4.99019e+00       2.04826e-04       1.26797e+02
 15.100      2.15665e+02       1.45739e+01       4.78274e+00       2.01636e-04       1.24805e+02
 15.200      2.15615e+02       1.39165e+01       4.61012e+00       1.98506e-04       1.22839e+02
 15.300      2.15547e+02       1.33601e+01       4.47018e+00       1.95434e-04       1.20899e+02
 15.400      2.15463e+02       1.28949e+01       4.35972e+00       1.92418e-04       1.18987e+02
 15.500      2.15367e+02       1.25112e+01       4.27555e+00       1.89457e-04       1.17104e+02
 15.600      2.15260e+02       1.21993e+01       4.21446e+00       1.86549e-04       1.15249e+02
 15.700      2.15144e+02       1.19495e+01       4.17328e+00       1.83693e-04       1.13424e+02
 15.800      2.15021e+02       1.17522e+01       4.14879e+00       1.80888e-04       1.11628e+02
 15.900      2.14894e+02       1.15975e+01       4.13781e+00       1.78133e-04       1.09863e+02
 16.000      2.14765e+02       1.14759e+01       4.13714e+00       1.75426e-04       1.08128e+02
 16.100      2.14635e+02       1.13775e+01       4.14357e+00       1.72766e-04       1.06424e+02
 16.200      2.14508e+02       1.12928e+01       4.15393e+00       1.70152e-04       1.04752e+02
 16.300      2.14385e+02       1.12120e+01       4.16500e+00       1.67583e-04       1.03111e+02
 16.400      2.14268e+02       1.11254e+01       4.17360e+00       1.65057e-04       1.01502e+02
 16.500      2.14160e+02       1.10233e+01       4.17652e+00       1.62575e-04       9.99249e+01
 16.600      2.14063e+02       1.08981e+01       4.17127e+00       1.60133e-04       9.83794e+01
 16.700      2.13975e+02       1.07499e+01       4.15777e+00       1.57732e-04       9.68644e+01
 16.800      2.13898e+02       1.05801e+01       4.13644e+00       1.55368e-04       9.53785e+01
 16.900      2.13830e+02       1.03902e+01       4.10772e+00       1.53042e-04       9.39205e+01
 17.000      2.13772e+02       1.01819e+01       4.07205e+00       1.50750e-04       9.24891e+01
 17.100      2.13724e+02       9.95667e+00       4.02985e+00       1.48492e-04       9.10830e+01
 17.200      2.13684e+02       9.71603e+00       3.98158e+00       1.46266e-04       8.97011e+01
 17.300      2.13653e+02       9.46155e+00       3.92765e+00       1.44071e-04       8.83424e+01
 17.400      2.13631e+02       9.19476e+00       3.86850e+00       1.41906e-04       8.70058e+01
 17.500      2.13617e+02       8.91721e+00       3.80458e+00       1.39770e-04       8.56902e+01
 17.600      2.13611e+02       8.63044e+00       3.73631e+00       1.37661e-04       8.43947e+01
 17.700      2.13613e+02       8.33600e+00       3.66413e+00       1.35578e-04       8.31185e+01
 17.800      2.13622e+02       8.03543e+00       3.58847e+00       1.33520e-04       8.18606e+01
 17.900      2.13639e+02       7.73028e+00       3.50977e+00       1.31487e-04       8.06201e+01
 18.000      2.13662e+02       7.42207e+00       3.42847e+00       1.29476e-04       7.93963e+01
 18.100      2.13693e+02       7.11237e+00       3.34499e+00       1.27489e-04       7.81885e+01
 18.200      2.13730e+02       6.80272e+00       3.25977e+00       1.25522e-04       7.69958e+01
 18.300      2.13773e+02       6.49465e+00       3.17326e+00       1.23577e-04       7.58177e+01
 18.400      2.13822e+02       6.18972e+00       3.08587e+00       1.21651e-04       7.46535e+01
 18.500      2.13876e+02       5.88945e+00       2.99805e+00       1.19745e-04       7.35025e+01
 18.600      2.13936e+02       5.59541e+00       2.91024e+00       1.17857e-04       7.23641e+01
 18.700      2.14002e+02       5.30912e+00       2.82286e+00       1.15988e-04       7.12379e+01
 18.800      2.14072e+02       5.03215e+00       2.73635e+00       1.14135e-04       7.01232e+01
 18.900      2.14147e+02       4.76578e+00       2.65110e+00       1.12300e-04       6.90197e+01
 19.000      2.14227e+02       4.51001e+00       2.56726e+00       1.10482e-04       6.79278e+01
 19.100      2.14310e+02       4.26437e+00       2.48489e+00       1.08683e-04       6.68480e+01
 19.200      2.14398e+02       4.02838e+00       2.40404e+00       1.06904e-04       6.57806e+01
 19.300      2.14490e+02       3.80158e+00       2.32478e+00       1.05146e-04       6.47265e+01
 19.400      2.14585e+02       3.58347e+00       2.24716e+00       1.03409e-04       6.36858e+01
 19.500      2.14684e+02       3.37360e+00       2.17124e+00       1.01695e-04       6.26589e+01
 19.600      2.14787e+02       3.17149e+00       2.09708e+00       1.00004e-04       6.16463e+01
 19.700      2.14892e+02       2.97666e+00       2.02475e+00       9.83368e-05       6.06483e+01
 19.800      2.15001e+02       2.78865e+00       1.95429e+00       9.66940e-05       5.96653e+01
 19.900      2.15112e+02       2.60697e+00       1.88578e+00       9.50762e-05       5.86974e+01
 20.000      2.15226e+02       2.43116e+00       1.81925e+00       9.34839e-05       5.77449e+01
 20.100      2.15342e+02       2.26074e+00       1.75479e+00       9.19175e-05       5.68080e+01
 20.200      2.15461e+02       2.09523e+00       1.69244e+00       9.03775e-05       5.58870e+01
 20.300      2.15582e+02       1.93418e+00       1.63227e+00       8.88642e-05       5.49820e+01
