# Data Source: NASA MERRA (version 1)
# Model Time = 2010-03-05 18:00:00
# Location = [  39.7393, -104.9900 ]
# Fields = [ Z(km), T(K), U(m/s), V(m/s), R(g/cm3), P(mbar) ]
# Ground Height = 1.589
  0.000      2.87871e+02       2.29774e+00      -1.23721e+00       1.22156e-03       1.00924e+03
  0.100      2.87250e+02       2.32213e+00      -1.24648e+00       1.20976e-03       9.97332e+02
  0.200      2.86625e+02       2.34318e+00      -1.25332e+00       1.19808e-03       9.85560e+02
  0.300      2.85982e+02       2.34608e+00      -1.24694e+00       1.18658e-03       9.73907e+02
  0.400      2.85314e+02       2.32894e+00      -1.22451e+00       1.17526e-03       9.62359e+02
  0.500      2.84641e+02       2.32894e+00      -1.20721e+00       1.16403e-03       9.50916e+02
  0.600      2.83985e+02       2.37694e+00      -1.21435e+00       1.15281e-03       9.39579e+02
  0.700      2.83340e+02       2.43424e+00      -1.23257e+00       1.14162e-03       9.28353e+02
  0.800      2.82697e+02       2.44547e+00      -1.24071e+00       1.13053e-03       9.17242e+02
  0.900      2.82057e+02       2.41157e+00      -1.24437e+00       1.11950e-03       9.06244e+02
  1.000      2.81427e+02       2.36639e+00      -1.26464e+00       1.10853e-03       8.95353e+02
  1.100      2.80806e+02       2.33128e+00      -1.31114e+00       1.09759e-03       8.84565e+02
  1.200      2.80181e+02       2.31200e+00      -1.37942e+00       1.08675e-03       8.73880e+02
  1.300      2.79537e+02       2.31337e+00      -1.46418e+00       1.07607e-03       8.63298e+02
  1.400      2.78862e+02       2.34021e+00      -1.56013e+00       1.06558e-03       8.52820e+02
  1.500      2.78143e+02       2.39713e+00      -1.66201e+00       1.05534e-03       8.42445e+02
  1.600      2.77384e+02       2.48658e+00      -1.76494e+00       1.04532e-03       8.32171e+02
  1.700      2.76599e+02       2.60985e+00      -1.86421e+00       1.03547e-03       8.21997e+02
  1.800      2.75801e+02       2.76821e+00      -1.95512e+00       1.02574e-03       8.11921e+02
  1.900      2.75002e+02       2.96295e+00      -2.03299e+00       1.01607e-03       8.01940e+02
  2.000      2.74214e+02       3.19536e+00      -2.09376e+00       1.00643e-03       7.92054e+02
  2.100      2.73436e+02       3.46680e+00      -2.13810e+00       9.96816e-04       7.82262e+02
  2.200      2.72661e+02       3.77869e+00      -2.16880e+00       9.87252e-04       7.72561e+02
  2.300      2.71884e+02       4.13244e+00      -2.18861e+00       9.77761e-04       7.62953e+02
  2.400      2.71097e+02       4.52946e+00      -2.20034e+00       9.68366e-04       7.53435e+02
  2.500      2.70294e+02       4.97082e+00      -2.20654e+00       9.59089e-04       7.44008e+02
  2.600      2.69473e+02       5.45328e+00      -2.20721e+00       9.49938e-04       7.34671e+02
  2.700      2.68632e+02       5.97057e+00      -2.20056e+00       9.40916e-04       7.25422e+02
  2.800      2.67770e+02       6.51638e+00      -2.18472e+00       9.32024e-04       7.16261e+02
  2.900      2.66886e+02       7.08436e+00      -2.15786e+00       9.23265e-04       7.07187e+02
  3.000      2.65979e+02       7.66817e+00      -2.11813e+00       9.14639e-04       6.98200e+02
  3.100      2.65052e+02       8.25652e+00      -2.06416e+00       9.06137e-04       6.89298e+02
  3.200      2.64115e+02       8.82712e+00      -1.99559e+00       8.97721e-04       6.80481e+02
  3.300      2.63179e+02       9.35622e+00      -1.91221e+00       8.89351e-04       6.71748e+02
  3.400      2.62256e+02       9.82006e+00      -1.81381e+00       8.80988e-04       6.63099e+02
  3.500      2.61358e+02       1.01949e+01      -1.70019e+00       8.72594e-04       6.54531e+02
  3.600      2.60495e+02       1.04575e+01      -1.57125e+00       8.64134e-04       6.46044e+02
  3.700      2.59668e+02       1.06024e+01      -1.43026e+00       8.55607e-04       6.37639e+02
  3.800      2.58867e+02       1.06429e+01      -1.28414e+00       8.47050e-04       6.29315e+02
  3.900      2.58081e+02       1.05932e+01      -1.13997e+00       8.38502e-04       6.21071e+02
  4.000      2.57298e+02       1.04678e+01      -1.00486e+00       8.30000e-04       6.12910e+02
  4.100      2.56508e+02       1.02809e+01      -8.85908e-01       8.21580e-04       6.04830e+02
  4.200      2.55701e+02       1.00468e+01      -7.89979e-01       8.13276e-04       5.96832e+02
  4.300      2.54871e+02       9.77246e+00      -7.14928e-01       8.05099e-04       5.88914e+02
  4.400      2.54025e+02       9.45596e+00      -6.46819e-01       7.97033e-04       5.81078e+02
  4.500      2.53167e+02       9.09459e+00      -5.70921e-01       7.89056e-04       5.73321e+02
  4.600      2.52305e+02       8.68570e+00      -4.72500e-01       7.81151e-04       5.65643e+02
  4.700      2.51442e+02       8.22663e+00      -3.36824e-01       7.73299e-04       5.58043e+02
  4.800      2.50586e+02       7.71472e+00      -1.49159e-01       7.65481e-04       5.50520e+02
  4.900      2.49741e+02       7.14932e+00       1.01684e-01       7.57684e-04       5.43074e+02
  5.000      2.48905e+02       6.53965e+00       4.09439e-01       7.49912e-04       5.35704e+02
  5.100      2.48075e+02       5.89801e+00       7.62468e-01       7.42173e-04       5.28409e+02
  5.200      2.47250e+02       5.23665e+00       1.14913e+00       7.34476e-04       5.21189e+02
  5.300      2.46426e+02       4.56787e+00       1.55779e+00       7.26829e-04       5.14044e+02
  5.400      2.45599e+02       3.90394e+00       1.97681e+00       7.19241e-04       5.06971e+02
  5.500      2.44768e+02       3.25715e+00       2.39454e+00       7.11720e-04       4.99972e+02
  5.600      2.43931e+02       2.63879e+00       2.80163e+00       7.04268e-04       4.93046e+02
  5.700      2.43093e+02       2.05631e+00       3.19772e+00       6.96871e-04       4.86191e+02
  5.800      2.42261e+02       1.51619e+00       3.58468e+00       6.89511e-04       4.79410e+02
  5.900      2.41442e+02       1.02494e+00       3.96440e+00       6.82170e-04       4.72701e+02
  6.000      2.40641e+02       5.89051e-01       4.33873e+00       6.74830e-04       4.66065e+02
  6.100      2.39867e+02       2.15006e-01       4.70955e+00       6.67474e-04       4.59501e+02
  6.200      2.39125e+02      -9.06994e-02       5.07874e+00       6.60086e-04       4.53010e+02
  6.300      2.38423e+02      -3.21805e-01       5.44824e+00       6.52651e-04       4.46592e+02
  6.400      2.37764e+02      -4.76643e-01       5.82143e+00       6.45160e-04       4.40246e+02
  6.500      2.37152e+02      -5.57766e-01       6.20302e+00       6.37610e-04       4.33975e+02
  6.600      2.36589e+02      -5.67884e-01       6.59777e+00       6.30000e-04       4.27777e+02
  6.700      2.36079e+02      -5.09708e-01       7.01044e+00       6.22327e-04       4.21655e+02
  6.800      2.35622e+02      -3.85947e-01       7.44578e+00       6.14590e-04       4.15608e+02
  6.900      2.35224e+02      -1.99313e-01       7.90854e+00       6.06788e-04       4.09637e+02
  7.000      2.34885e+02       4.74857e-02       8.40349e+00       5.98919e-04       4.03743e+02
  7.100      2.34608e+02       3.51710e-01       8.93529e+00       5.90985e-04       3.97925e+02
  7.200      2.34392e+02       7.09207e-01       9.50356e+00       5.82996e-04       3.92185e+02
  7.300      2.34227e+02       1.11377e+00       1.01006e+01       5.74982e-04       3.86521e+02
  7.400      2.34103e+02       1.55903e+00       1.07183e+01       5.66971e-04       3.80935e+02
  7.500      2.34010e+02       2.03861e+00       1.13483e+01       5.58993e-04       3.75425e+02
  7.600      2.33939e+02       2.54615e+00       1.19824e+01       5.51073e-04       3.69993e+02
  7.700      2.33879e+02       3.07527e+00       1.26124e+01       5.43235e-04       3.64637e+02
  7.800      2.33820e+02       3.61962e+00       1.32300e+01       5.35505e-04       3.59358e+02
  7.900      2.33753e+02       4.17281e+00       1.38270e+01       5.27903e-04       3.54155e+02
  8.000      2.33668e+02       4.72848e+00       1.43952e+01       5.20451e-04       3.49029e+02
  8.100      2.33558e+02       5.28147e+00       1.49284e+01       5.13161e-04       3.43978e+02
  8.200      2.33424e+02       5.82932e+00       1.54252e+01       5.06027e-04       3.39001e+02
  8.300      2.33265e+02       6.36999e+00       1.58849e+01       4.99042e-04       3.34094e+02
  8.400      2.33084e+02       6.90140e+00       1.63067e+01       4.92198e-04       3.29257e+02
  8.500      2.32882e+02       7.42150e+00       1.66900e+01       4.85488e-04       3.24487e+02
  8.600      2.32660e+02       7.92822e+00       1.70339e+01       4.78905e-04       3.19782e+02
  8.700      2.32419e+02       8.41950e+00       1.73378e+01       4.72442e-04       3.15140e+02
  8.800      2.32161e+02       8.89328e+00       1.76008e+01       4.66094e-04       3.10559e+02
  8.900      2.31886e+02       9.34750e+00       1.78223e+01       4.59853e-04       3.06038e+02
  9.000      2.31595e+02       9.78011e+00       1.80015e+01       4.53715e-04       3.01575e+02
  9.100      2.31291e+02       1.01894e+01       1.81378e+01       4.47674e-04       2.97168e+02
  9.200      2.30975e+02       1.05776e+01       1.82316e+01       4.41723e-04       2.92817e+02
  9.300      2.30652e+02       1.09502e+01       1.82841e+01       4.35854e-04       2.88522e+02
  9.400      2.30324e+02       1.13123e+01       1.82963e+01       4.30061e-04       2.84283e+02
  9.500      2.29997e+02       1.16692e+01       1.82696e+01       4.24336e-04       2.80101e+02
  9.600      2.29674e+02       1.20262e+01       1.82049e+01       4.18673e-04       2.75975e+02
  9.700      2.29358e+02       1.23886e+01       1.81036e+01       4.13067e-04       2.71905e+02
  9.800      2.29054e+02       1.27617e+01       1.79668e+01       4.07511e-04       2.67891e+02
  9.900      2.28764e+02       1.31507e+01       1.77957e+01       4.01998e-04       2.63933e+02
 10.000      2.28493e+02       1.35610e+01       1.75914e+01       3.96525e-04       2.60032e+02
 10.100      2.28245e+02       1.39977e+01       1.73550e+01       3.91085e-04       2.56186e+02
 10.200      2.28024e+02       1.44663e+01       1.70879e+01       3.85675e-04       2.52397e+02
 10.300      2.27832e+02       1.49718e+01       1.67911e+01       3.80288e-04       2.48662e+02
 10.400      2.27672e+02       1.55140e+01       1.64656e+01       3.74927e-04       2.44984e+02
 10.500      2.27538e+02       1.60849e+01       1.61123e+01       3.69596e-04       2.41359e+02
 10.600      2.27428e+02       1.66757e+01       1.57318e+01       3.64303e-04       2.37787e+02
 10.700      2.27337e+02       1.72779e+01       1.53251e+01       3.59053e-04       2.34267e+02
 10.800      2.27262e+02       1.78827e+01       1.48928e+01       3.53854e-04       2.30799e+02
 10.900      2.27199e+02       1.84815e+01       1.44358e+01       3.48710e-04       2.27381e+02
 11.000      2.27144e+02       1.90657e+01       1.39548e+01       3.43627e-04       2.24012e+02
 11.100      2.27093e+02       1.96264e+01       1.34506e+01       3.38610e-04       2.20691e+02
 11.200      2.27042e+02       2.01551e+01       1.29240e+01       3.33663e-04       2.17418e+02
 11.300      2.26987e+02       2.06431e+01       1.23757e+01       3.28791e-04       2.14191e+02
 11.400      2.26924e+02       2.10817e+01       1.18065e+01       3.23998e-04       2.11011e+02
 11.500      2.26850e+02       2.14623e+01       1.12172e+01       3.19287e-04       2.07875e+02
 11.600      2.26761e+02       2.17762e+01       1.06086e+01       3.14663e-04       2.04783e+02
 11.700      2.26652e+02       2.20147e+01       9.98144e+00       3.10128e-04       2.01735e+02
 11.800      2.26520e+02       2.21693e+01       9.33657e+00       3.05685e-04       1.98730e+02
 11.900      2.26364e+02       2.22379e+01       8.67691e+00       3.01335e-04       1.95766e+02
 12.000      2.26185e+02       2.22261e+01       8.00797e+00       2.97072e-04       1.92844e+02
 12.100      2.25984e+02       2.21398e+01       7.33540e+00       2.92893e-04       1.89963e+02
 12.200      2.25764e+02       2.19853e+01       6.66484e+00       2.88793e-04       1.87121e+02
 12.300      2.25526e+02       2.17685e+01       6.00194e+00       2.84769e-04       1.84320e+02
 12.400      2.25272e+02       2.14954e+01       5.35236e+00       2.80817e-04       1.81557e+02
 12.500      2.25003e+02       2.11721e+01       4.72173e+00       2.76933e-04       1.78832e+02
 12.600      2.24721e+02       2.08047e+01       4.11571e+00       2.73115e-04       1.76145e+02
 12.700      2.24428e+02       2.03992e+01       3.53995e+00       2.69357e-04       1.73495e+02
 12.800      2.24125e+02       1.99617e+01       3.00009e+00       2.65658e-04       1.70882e+02
 12.900      2.23814e+02       1.94981e+01       2.50180e+00       2.62015e-04       1.68305e+02
 13.000      2.23498e+02       1.90146e+01       2.05070e+00       2.58424e-04       1.65763e+02
 13.100      2.23176e+02       1.85172e+01       1.65246e+00       2.54882e-04       1.63256e+02
 13.200      2.22852e+02       1.80120e+01       1.31272e+00       2.51388e-04       1.60784e+02
 13.300      2.22527e+02       1.75050e+01       1.03714e+00       2.47938e-04       1.58346e+02
 13.400      2.22202e+02       1.70021e+01       8.31351e-01       2.44530e-04       1.55941e+02
 13.500      2.21880e+02       1.65096e+01       7.01011e-01       2.41161e-04       1.53570e+02
 13.600      2.21561e+02       1.60335e+01       6.51771e-01       2.37829e-04       1.51231e+02
 13.700      2.21248e+02       1.55796e+01       6.89058e-01       2.34533e-04       1.48924e+02
 13.800      2.20941e+02       1.51505e+01       8.12445e-01       2.31271e-04       1.46649e+02
 13.900      2.20640e+02       1.47455e+01       1.01513e+00       2.28042e-04       1.44405e+02
 14.000      2.20346e+02       1.43632e+01       1.29001e+00       2.24848e-04       1.42193e+02
 14.100      2.20059e+02       1.40025e+01       1.62996e+00       2.21687e-04       1.40011e+02
 14.200      2.19778e+02       1.36624e+01       2.02786e+00       2.18561e-04       1.37860e+02
 14.300      2.19503e+02       1.33417e+01       2.47661e+00       2.15468e-04       1.35739e+02
 14.400      2.19234e+02       1.30392e+01       2.96907e+00       2.12410e-04       1.33649e+02
 14.500      2.18972e+02       1.27538e+01       3.49815e+00       2.09385e-04       1.31588e+02
 14.600      2.18716e+02       1.24844e+01       4.05671e+00       2.06394e-04       1.29556e+02
 14.700      2.18466e+02       1.22298e+01       4.63765e+00       2.03437e-04       1.27554e+02
 14.800      2.18222e+02       1.19889e+01       5.23384e+00       2.00513e-04       1.25581e+02
 14.900      2.17985e+02       1.17606e+01       5.83818e+00       1.97623e-04       1.23636e+02
 15.000      2.17754e+02       1.15436e+01       6.44355e+00       1.94767e-04       1.21720e+02
 15.100      2.17529e+02       1.13370e+01       7.04282e+00       1.91944e-04       1.19832e+02
 15.200      2.17310e+02       1.11395e+01       7.62889e+00       1.89154e-04       1.17971e+02
 15.300      2.17097e+02       1.09499e+01       8.19464e+00       1.86397e-04       1.16138e+02
 15.400      2.16891e+02       1.07673e+01       8.73294e+00       1.83673e-04       1.14332e+02
 15.500      2.16691e+02       1.05903e+01       9.23670e+00       1.80982e-04       1.12553e+02
 15.600      2.16496e+02       1.04180e+01       9.69878e+00       1.78324e-04       1.10801e+02
 15.700      2.16308e+02       1.02490e+01       1.01121e+01       1.75699e-04       1.09074e+02
 15.800      2.16126e+02       1.00824e+01       1.04695e+01       1.73105e-04       1.07374e+02
 15.900      2.15950e+02       9.91698e+00       1.07638e+01       1.70545e-04       1.05699e+02
 16.000      2.15780e+02       9.75157e+00       1.09881e+01       1.68016e-04       1.04050e+02
 16.100      2.15615e+02       9.58505e+00       1.11351e+01       1.65519e-04       1.02426e+02
 16.200      2.15457e+02       9.41628e+00       1.11977e+01       1.63054e-04       1.00826e+02
 16.300      2.15305e+02       9.24415e+00       1.11691e+01       1.60621e-04       9.92515e+01
 16.400      2.15159e+02       9.06833e+00       1.10488e+01       1.58218e-04       9.77007e+01
 16.500      2.15018e+02       8.88927e+00       1.08434e+01       1.55847e-04       9.61736e+01
 16.600      2.14882e+02       8.70749e+00       1.05594e+01       1.53507e-04       9.46697e+01
 16.700      2.14752e+02       8.52348e+00       1.02038e+01       1.51197e-04       9.31887e+01
 16.800      2.14626e+02       8.33777e+00       9.78317e+00       1.48918e-04       9.17303e+01
 16.900      2.14505e+02       8.15085e+00       9.30439e+00       1.46669e-04       9.02939e+01
 17.000      2.14389e+02       7.96323e+00       8.77417e+00       1.44450e-04       8.88792e+01
 17.100      2.14276e+02       7.77541e+00       8.19927e+00       1.42260e-04       8.74859e+01
 17.200      2.14167e+02       7.58791e+00       7.58646e+00       1.40099e-04       8.61136e+01
 17.300      2.14062e+02       7.40123e+00       6.94250e+00       1.37968e-04       8.47619e+01
 17.400      2.13961e+02       7.21587e+00       6.27413e+00       1.35865e-04       8.34305e+01
 17.500      2.13862e+02       7.03234e+00       5.58812e+00       1.33791e-04       8.21189e+01
 17.600      2.13766e+02       6.85116e+00       4.89122e+00       1.31746e-04       8.08270e+01
 17.700      2.13673e+02       6.67281e+00       4.19019e+00       1.29728e-04       7.95544e+01
 17.800      2.13582e+02       6.49782e+00       3.49181e+00       1.27738e-04       7.83007e+01
 17.900      2.13493e+02       6.32669e+00       2.80281e+00       1.25775e-04       7.70657e+01
 18.000      2.13406e+02       6.15992e+00       2.12995e+00       1.23840e-04       7.58489e+01
 18.100      2.13321e+02       5.99802e+00       1.47999e+00       1.21932e-04       7.46503e+01
 18.200      2.13237e+02       5.84150e+00       8.59694e-01       1.20050e-04       7.34693e+01
 18.300      2.13154e+02       5.69086e+00       2.75831e-01       1.18195e-04       7.23058e+01
 18.400      2.13072e+02       5.54661e+00      -2.64865e-01       1.16366e-04       7.11595e+01
 18.500      2.12990e+02       5.40926e+00      -7.55626e-01       1.14563e-04       7.00300e+01
 18.600      2.12909e+02       5.27916e+00      -1.19121e+00       1.12785e-04       6.89172e+01
 18.700      2.12829e+02       5.15604e+00      -1.57291e+00       1.11033e-04       6.78210e+01
 18.800      2.12749e+02       5.03945e+00      -1.90382e+00       1.09306e-04       6.67411e+01
 18.900      2.12671e+02       4.92893e+00      -2.18702e+00       1.07604e-04       6.56776e+01
 19.000      2.12594e+02       4.82404e+00      -2.42559e+00       1.05926e-04       6.46304e+01
 19.100      2.12520e+02       4.72432e+00      -2.62262e+00       1.04273e-04       6.35992e+01
 19.200      2.12447e+02       4.62932e+00      -2.78119e+00       1.02643e-04       6.25841e+01
 19.300      2.12377e+02       4.53859e+00      -2.90438e+00       1.01038e-04       6.15849e+01
 19.400      2.12310e+02       4.45167e+00      -2.99527e+00       9.94560e-05       6.06015e+01
 19.500      2.12246e+02       4.36813e+00      -3.05695e+00       9.78972e-05       5.96337e+01
 19.600      2.12185e+02       4.28750e+00      -3.09249e+00       9.63615e-05       5.86814e+01
 19.700      2.12128e+02       4.20934e+00      -3.10498e+00       9.48484e-05       5.77445e+01
 19.800      2.12075e+02       4.13319e+00      -3.09751e+00       9.33580e-05       5.68229e+01
 19.900      2.12027e+02       4.05861e+00      -3.07315e+00       9.18896e-05       5.59164e+01
 20.000      2.11983e+02       3.98514e+00      -3.03499e+00       9.04432e-05       5.50249e+01
 20.100      2.11944e+02       3.91233e+00      -2.98611e+00       8.90185e-05       5.41482e+01
 20.200      2.11911e+02       3.83973e+00      -2.92960e+00       8.76152e-05       5.32862e+01
 20.300      2.11883e+02       3.76688e+00      -2.86852e+00       8.62331e-05       5.24387e+01
