# Data Source: NASA MERRA (version 2)
# Model Time = 2011-01-19 18:00:00
# Location = [  39.1026,  -84.5123 ]
# Fields = [ Z(km), T(K), U(m/s), V(m/s), R(g/cm3), P(mbar) ]
# Ground Height = 0.165
  0.000      2.74537e+02       4.38823e+00      -1.30720e+00       1.29205e-03       1.01803e+03
  0.100      2.73755e+02       4.63312e+00      -1.42880e+00       1.27965e-03       1.00539e+03
  0.200      2.73011e+02       4.86982e+00      -1.51888e+00       1.26721e-03       9.92908e+02
  0.300      2.72216e+02       5.11737e+00      -1.65070e+00       1.25511e-03       9.80571e+02
  0.400      2.71290e+02       5.39134e+00      -1.89208e+00       1.24371e-03       9.68355e+02
  0.500      2.70276e+02       5.64200e+00      -2.20823e+00       1.23277e-03       9.56248e+02
  0.600      2.69324e+02       5.76569e+00      -2.47678e+00       1.22159e-03       9.44244e+02
  0.700      2.68490e+02       5.75967e+00      -2.66386e+00       1.20995e-03       9.32345e+02
  0.800      2.67721e+02       5.72908e+00      -2.83032e+00       1.19808e-03       9.20559e+02
  0.900      2.67008e+02       5.76294e+00      -2.96650e+00       1.18606e-03       9.08896e+02
  1.000      2.66405e+02       5.92080e+00      -2.95977e+00       1.17366e-03       8.97361e+02
  1.100      2.65932e+02       6.23537e+00      -2.75558e+00       1.16081e-03       8.85958e+02
  1.200      2.65526e+02       6.68866e+00      -2.43417e+00       1.14778e-03       8.74679e+02
  1.300      2.65113e+02       7.25643e+00      -2.09230e+00       1.13490e-03       8.63517e+02
  1.400      2.64619e+02       7.91445e+00      -1.82677e+00       1.12246e-03       8.52463e+02
  1.500      2.63990e+02       8.64076e+00      -1.72393e+00       1.11069e-03       8.41513e+02
  1.600      2.63303e+02       9.43144e+00      -1.78675e+00       1.09924e-03       8.30674e+02
  1.700      2.62702e+02       1.02913e+01      -1.97826e+00       1.08755e-03       8.19961e+02
  1.800      2.62333e+02       1.12251e+01      -2.26123e+00       1.07504e-03       8.09388e+02
  1.900      2.62338e+02       1.22376e+01      -2.59842e+00       1.06117e-03       7.98968e+02
  2.000      2.62789e+02       1.33219e+01      -2.95729e+00       1.04575e-03       7.88709e+02
  2.100      2.63539e+02       1.44351e+01      -3.31918e+00       1.02941e-03       7.78605e+02
  2.200      2.64401e+02       1.55283e+01      -3.66802e+00       1.01294e-03       7.68647e+02
  2.300      2.65187e+02       1.65523e+01      -3.98773e+00       9.97032e-04       7.58828e+02
  2.400      2.65710e+02       1.74578e+01      -4.26224e+00       9.82366e-04       7.49141e+02
  2.500      2.65844e+02       1.82133e+01      -4.48071e+00       9.69340e-04       7.39578e+02
  2.600      2.65647e+02       1.88402e+01      -4.64835e+00       9.57671e-04       7.30135e+02
  2.700      2.65215e+02       1.93705e+01      -4.77341e+00       9.46974e-04       7.20805e+02
  2.800      2.64642e+02       1.98360e+01      -4.86417e+00       9.36882e-04       7.11584e+02
  2.900      2.64025e+02       2.02685e+01      -4.92890e+00       9.27043e-04       7.02468e+02
  3.000      2.63449e+02       2.06974e+01      -4.97551e+00       9.17142e-04       6.93451e+02
  3.100      2.62935e+02       2.11295e+01      -5.00857e+00       9.07117e-04       6.84531e+02
  3.200      2.62463e+02       2.15592e+01      -5.03080e+00       8.97037e-04       6.75709e+02
  3.300      2.62013e+02       2.19807e+01      -5.04491e+00       8.86971e-04       6.66983e+02
  3.400      2.61567e+02       2.23882e+01      -5.05364e+00       8.76985e-04       6.58352e+02
  3.500      2.61106e+02       2.27759e+01      -5.05968e+00       8.67143e-04       6.49815e+02
  3.600      2.60614e+02       2.31402e+01      -5.06698e+00       8.57491e-04       6.41372e+02
  3.700      2.60094e+02       2.34853e+01      -5.08414e+00       8.48020e-04       6.33022e+02
  3.800      2.59553e+02       2.38172e+01      -5.12080e+00       8.38704e-04       6.24764e+02
  3.900      2.58995e+02       2.41420e+01      -5.18664e+00       8.29524e-04       6.16598e+02
  4.000      2.58428e+02       2.44657e+01      -5.29131e+00       8.20456e-04       6.08522e+02
  4.100      2.57857e+02       2.47944e+01      -5.44448e+00       8.11481e-04       6.00536e+02
  4.200      2.57288e+02       2.51347e+01      -5.65344e+00       8.02581e-04       5.92639e+02
  4.300      2.56718e+02       2.54955e+01      -5.91380e+00       7.93762e-04       5.84829e+02
  4.400      2.56145e+02       2.58866e+01      -6.21761e+00       7.85034e-04       5.77106e+02
  4.500      2.55563e+02       2.63178e+01      -6.55690e+00       7.76405e-04       5.69467e+02
  4.600      2.54971e+02       2.67987e+01      -6.92373e+00       7.67886e-04       5.61912e+02
  4.700      2.54363e+02       2.73392e+01      -7.31014e+00       7.59485e-04       5.54440e+02
  4.800      2.53736e+02       2.79487e+01      -7.70822e+00       7.51210e-04       5.47048e+02
  4.900      2.53089e+02       2.86247e+01      -8.11184e+00       7.43064e-04       5.39736e+02
  5.000      2.52423e+02       2.93488e+01      -8.51716e+00       7.35041e-04       5.32503e+02
  5.100      2.51739e+02       3.01018e+01      -8.92051e+00       7.27136e-04       5.25349e+02
  5.200      2.51039e+02       3.08646e+01      -9.31819e+00       7.19341e-04       5.18272e+02
  5.300      2.50325e+02       3.16178e+01      -9.70652e+00       7.11652e-04       5.11274e+02
  5.400      2.49597e+02       3.23423e+01      -1.00818e+01       7.04064e-04       5.04352e+02
  5.500      2.48858e+02       3.30189e+01      -1.04405e+01       6.96570e-04       4.97506e+02
  5.600      2.48109e+02       3.36378e+01      -1.07827e+01       6.89166e-04       4.90736e+02
  5.700      2.47349e+02       3.42025e+01      -1.11137e+01       6.81846e-04       4.84038e+02
  5.800      2.46580e+02       3.47171e+01      -1.14393e+01       6.74607e-04       4.77410e+02
  5.900      2.45803e+02       3.51861e+01      -1.17653e+01       6.67444e-04       4.70851e+02
  6.000      2.45017e+02       3.56137e+01      -1.20975e+01       6.60351e-04       4.64358e+02
  6.100      2.44223e+02       3.60042e+01      -1.24416e+01       6.53325e-04       4.57929e+02
  6.200      2.43423e+02       3.63621e+01      -1.28034e+01       6.46361e-04       4.51563e+02
  6.300      2.42616e+02       3.66924e+01      -1.31877e+01       6.39456e-04       4.45258e+02
  6.400      2.41809e+02       3.70078e+01      -1.35902e+01       6.32596e-04       4.39016e+02
  6.500      2.41009e+02       3.73249e+01      -1.40019e+01       6.25768e-04       4.32842e+02
  6.600      2.40226e+02       3.76600e+01      -1.44140e+01       6.18957e-04       4.26739e+02
  6.700      2.39467e+02       3.80297e+01      -1.48175e+01       6.12148e-04       4.20711e+02
  6.800      2.38740e+02       3.84504e+01      -1.52035e+01       6.05328e-04       4.14760e+02
  6.900      2.38053e+02       3.89387e+01      -1.55630e+01       5.98483e-04       4.08891e+02
  7.000      2.37416e+02       3.95111e+01      -1.58872e+01       5.91601e-04       4.03107e+02
  7.100      2.36834e+02       4.01834e+01      -1.61675e+01       5.84670e-04       3.97408e+02
  7.200      2.36309e+02       4.09569e+01      -1.64037e+01       5.77690e-04       3.91793e+02
  7.300      2.35827e+02       4.18162e+01      -1.66057e+01       5.70679e-04       3.86249e+02
  7.400      2.35379e+02       4.27450e+01      -1.67836e+01       5.63652e-04       3.80768e+02
  7.500      2.34952e+02       4.37269e+01      -1.69477e+01       5.56624e-04       3.75339e+02
  7.600      2.34536e+02       4.47458e+01      -1.71081e+01       5.49612e-04       3.69953e+02
  7.700      2.34117e+02       4.57853e+01      -1.72750e+01       5.42629e-04       3.64601e+02
  7.800      2.33686e+02       4.68291e+01      -1.74587e+01       5.35689e-04       3.59276e+02
  7.900      2.33230e+02       4.78610e+01      -1.76693e+01       5.28808e-04       3.53969e+02
  8.000      2.32739e+02       4.88647e+01      -1.79171e+01       5.21997e-04       3.48674e+02
  8.100      2.32205e+02       4.98274e+01      -1.82048e+01       5.15276e-04       3.43395e+02
  8.200      2.31634e+02       5.07430e+01      -1.85215e+01       5.08669e-04       3.38157e+02
  8.300      2.31029e+02       5.16060e+01      -1.88545e+01       5.02205e-04       3.32989e+02
  8.400      2.30397e+02       5.24113e+01      -1.91911e+01       4.95908e-04       3.27914e+02
  8.500      2.29742e+02       5.31533e+01      -1.95186e+01       4.89801e-04       3.22955e+02
  8.600      2.29071e+02       5.38267e+01      -1.98244e+01       4.83907e-04       3.18136e+02
  8.700      2.28387e+02       5.44262e+01      -2.00957e+01       4.78247e-04       3.13477e+02
  8.800      2.27697e+02       5.49464e+01      -2.03200e+01       4.72841e-04       3.08996e+02
  8.900      2.27005e+02       5.53819e+01      -2.04845e+01       4.67707e-04       3.04713e+02
  9.000      2.26317e+02       5.57274e+01      -2.05766e+01       4.62864e-04       3.00644e+02
  9.100      2.25637e+02       5.59785e+01      -2.05854e+01       4.58324e-04       2.96801e+02
  9.200      2.24969e+02       5.61369e+01      -2.05119e+01       4.54059e-04       2.93169e+02
  9.300      2.24316e+02       5.62071e+01      -2.03620e+01       4.50028e-04       2.89722e+02
  9.400      2.23678e+02       5.61934e+01      -2.01416e+01       4.46193e-04       2.86437e+02
  9.500      2.23060e+02       5.61000e+01      -1.98565e+01       4.42515e-04       2.83290e+02
  9.600      2.22462e+02       5.59314e+01      -1.95126e+01       4.38958e-04       2.80260e+02
  9.700      2.21888e+02       5.56919e+01      -1.91158e+01       4.35486e-04       2.77325e+02
  9.800      2.21340e+02       5.53858e+01      -1.86719e+01       4.32064e-04       2.74466e+02
  9.900      2.20819e+02       5.50175e+01      -1.81868e+01       4.28659e-04       2.71663e+02
 10.000      2.20329e+02       5.45913e+01      -1.76663e+01       4.25238e-04       2.68897e+02
 10.100      2.19871e+02       5.41116e+01      -1.71163e+01       4.21771e-04       2.66150e+02
 10.200      2.19448e+02       5.35827e+01      -1.65428e+01       4.18227e-04       2.63406e+02
 10.300      2.19063e+02       5.30089e+01      -1.59514e+01       4.14576e-04       2.60648e+02
 10.400      2.18717e+02       5.23946e+01      -1.53482e+01       4.10791e-04       2.57861e+02
 10.500      2.18413e+02       5.17441e+01      -1.47390e+01       4.06844e-04       2.55028e+02
 10.600      2.18153e+02       5.10619e+01      -1.41297e+01       4.02711e-04       2.52137e+02
 10.700      2.17940e+02       5.03521e+01      -1.35260e+01       3.98367e-04       2.49173e+02
 10.800      2.17773e+02       4.96192e+01      -1.29317e+01       3.93804e-04       2.46131e+02
 10.900      2.17650e+02       4.88672e+01      -1.23466e+01       3.89035e-04       2.43012e+02
 11.000      2.17566e+02       4.81003e+01      -1.17700e+01       3.84078e-04       2.39823e+02
 11.100      2.17517e+02       4.73228e+01      -1.12015e+01       3.78951e-04       2.36569e+02
 11.200      2.17500e+02       4.65388e+01      -1.06403e+01       3.73669e-04       2.33253e+02
 11.300      2.17510e+02       4.57524e+01      -1.00859e+01       3.68250e-04       2.29882e+02
 11.400      2.17545e+02       4.49678e+01      -9.53757e+00       3.62709e-04       2.26459e+02
 11.500      2.17599e+02       4.41892e+01      -8.99483e+00       3.57063e-04       2.22989e+02
 11.600      2.17669e+02       4.34207e+01      -8.45702e+00       3.51327e-04       2.19478e+02
 11.700      2.17752e+02       4.26666e+01      -7.92355e+00       3.45516e-04       2.15929e+02
 11.800      2.17842e+02       4.19309e+01      -7.39379e+00       3.39644e-04       2.12348e+02
 11.900      2.17937e+02       4.12179e+01      -6.86716e+00       3.33725e-04       2.08738e+02
 12.000      2.18032e+02       4.05317e+01      -6.34303e+00       3.27773e-04       2.05105e+02
 12.100      2.18124e+02       3.98764e+01      -5.82081e+00       3.21800e-04       2.01452e+02
 12.200      2.18209e+02       3.92560e+01      -5.29994e+00       3.15818e-04       1.97783e+02
 12.300      2.18284e+02       3.86699e+01      -4.78070e+00       3.09843e-04       1.94109e+02
 12.400      2.18351e+02       3.81143e+01      -4.26404e+00       3.03894e-04       1.90441e+02
 12.500      2.18409e+02       3.75851e+01      -3.75086e+00       2.97989e-04       1.86789e+02
 12.600      2.18457e+02       3.70784e+01      -3.24212e+00       2.92143e-04       1.83165e+02
 12.700      2.18496e+02       3.65904e+01      -2.73876e+00       2.86370e-04       1.79578e+02
 12.800      2.18527e+02       3.61169e+01      -2.24171e+00       2.80686e-04       1.76038e+02
 12.900      2.18548e+02       3.56540e+01      -1.75192e+00       2.75102e-04       1.72553e+02
 13.000      2.18559e+02       3.51978e+01      -1.27031e+00       2.69630e-04       1.69130e+02
 13.100      2.18561e+02       3.47443e+01      -7.97823e-01       2.64281e-04       1.65776e+02
 13.200      2.18554e+02       3.42896e+01      -3.35409e-01       2.59063e-04       1.62498e+02
 13.300      2.18538e+02       3.38297e+01       1.16005e-01       2.53987e-04       1.59301e+02
 13.400      2.18512e+02       3.33606e+01       5.55474e-01       2.49058e-04       1.56192e+02
 13.500      2.18476e+02       3.28784e+01       9.82067e-01       2.44285e-04       1.53173e+02
 13.600      2.18431e+02       3.23791e+01       1.39484e+00       2.39674e-04       1.50251e+02
 13.700      2.18376e+02       3.18594e+01       1.79298e+00       2.35229e-04       1.47427e+02
 13.800      2.18312e+02       3.13199e+01       2.17635e+00       2.30943e-04       1.44699e+02
 13.900      2.18239e+02       3.07623e+01       2.54498e+00       2.26807e-04       1.42060e+02
 14.000      2.18158e+02       3.01883e+01       2.89896e+00       2.22814e-04       1.39507e+02
 14.100      2.18069e+02       2.95995e+01       3.23834e+00       2.18955e-04       1.37035e+02
 14.200      2.17973e+02       2.89978e+01       3.56317e+00       2.15222e-04       1.34639e+02
 14.300      2.17870e+02       2.83847e+01       3.87352e+00       2.11609e-04       1.32316e+02
 14.400      2.17760e+02       2.77621e+01       4.16946e+00       2.08108e-04       1.30062e+02
 14.500      2.17644e+02       2.71315e+01       4.45103e+00       2.04714e-04       1.27872e+02
 14.600      2.17523e+02       2.64948e+01       4.71831e+00       2.01420e-04       1.25745e+02
 14.700      2.17397e+02       2.58536e+01       4.97134e+00       1.98220e-04       1.23675e+02
 14.800      2.17266e+02       2.52097e+01       5.21020e+00       1.95109e-04       1.21661e+02
 14.900      2.17131e+02       2.45647e+01       5.43494e+00       1.92081e-04       1.19699e+02
 15.000      2.16993e+02       2.39203e+01       5.64562e+00       1.89132e-04       1.17786e+02
 15.100      2.16851e+02       2.32784e+01       5.84231e+00       1.86257e-04       1.15919e+02
 15.200      2.16706e+02       2.26405e+01       6.02506e+00       1.83450e-04       1.14096e+02
 15.300      2.16560e+02       2.20083e+01       6.19394e+00       1.80709e-04       1.12315e+02
 15.400      2.16411e+02       2.13837e+01       6.34899e+00       1.78028e-04       1.10573e+02
 15.500      2.16261e+02       2.07682e+01       6.49030e+00       1.75404e-04       1.08868e+02
 15.600      2.16110e+02       2.01637e+01       6.61791e+00       1.72833e-04       1.07198e+02
 15.700      2.15959e+02       1.95718e+01       6.73188e+00       1.70312e-04       1.05560e+02
 15.800      2.15808e+02       1.89942e+01       6.83229e+00       1.67836e-04       1.03953e+02
 15.900      2.15658e+02       1.84326e+01       6.91918e+00       1.65404e-04       1.02374e+02
 16.000      2.15508e+02       1.78887e+01       6.99262e+00       1.63011e-04       1.00823e+02
 16.100      2.15360e+02       1.73643e+01       7.05267e+00       1.60654e-04       9.92978e+01
 16.200      2.15214e+02       1.68601e+01       7.09959e+00       1.58333e-04       9.77964e+01
 16.300      2.15070e+02       1.63759e+01       7.13384e+00       1.56044e-04       9.63184e+01
 16.400      2.14929e+02       1.59115e+01       7.15588e+00       1.53787e-04       9.48631e+01
 16.500      2.14792e+02       1.54666e+01       7.16619e+00       1.51561e-04       9.34299e+01
 16.600      2.14658e+02       1.50411e+01       7.16524e+00       1.49363e-04       9.20180e+01
 16.700      2.14529e+02       1.46347e+01       7.15349e+00       1.47193e-04       9.06267e+01
 16.800      2.14405e+02       1.42472e+01       7.13142e+00       1.45050e-04       8.92555e+01
 16.900      2.14287e+02       1.38784e+01       7.09950e+00       1.42932e-04       8.79038e+01
 17.000      2.14174e+02       1.35280e+01       7.05818e+00       1.40839e-04       8.65709e+01
 17.100      2.14068e+02       1.31958e+01       7.00795e+00       1.38769e-04       8.52563e+01
 17.200      2.13968e+02       1.28815e+01       6.94928e+00       1.36722e-04       8.39595e+01
 17.300      2.13876e+02       1.25850e+01       6.88263e+00       1.34696e-04       8.26800e+01
 17.400      2.13792e+02       1.23061e+01       6.80847e+00       1.32691e-04       8.14172e+01
 17.500      2.13717e+02       1.20444e+01       6.72727e+00       1.30706e-04       8.01708e+01
 17.600      2.13650e+02       1.17997e+01       6.63951e+00       1.28740e-04       7.89401e+01
 17.700      2.13593e+02       1.15719e+01       6.54564e+00       1.26792e-04       7.77250e+01
 17.800      2.13546e+02       1.13607e+01       6.44615e+00       1.24862e-04       7.65248e+01
 17.900      2.13509e+02       1.11659e+01       6.34150e+00       1.22948e-04       7.53392e+01
 18.000      2.13483e+02       1.09872e+01       6.23216e+00       1.21051e-04       7.41678e+01
 18.100      2.13469e+02       1.08245e+01       6.11860e+00       1.19170e-04       7.30102e+01
 18.200      2.13466e+02       1.06774e+01       6.00129e+00       1.17304e-04       7.18662e+01
 18.300      2.13476e+02       1.05458e+01       5.88069e+00       1.15453e-04       7.07353e+01
 18.400      2.13499e+02       1.04294e+01       5.75729e+00       1.13616e-04       6.96173e+01
 18.500      2.13534e+02       1.03276e+01       5.63166e+00       1.11794e-04       6.85122e+01
 18.600      2.13582e+02       1.02394e+01       5.50454e+00       1.09987e-04       6.74202e+01
 18.700      2.13641e+02       1.01635e+01       5.37670e+00       1.08198e-04       6.63418e+01
 18.800      2.13711e+02       1.00989e+01       5.24888e+00       1.06427e-04       6.52773e+01
 18.900      2.13790e+02       1.00442e+01       5.12185e+00       1.04676e-04       6.42269e+01
 19.000      2.13879e+02       9.99843e+00       4.99637e+00       1.02945e-04       6.31911e+01
 19.100      2.13975e+02       9.96036e+00       4.87318e+00       1.01236e-04       6.21700e+01
 19.200      2.14079e+02       9.92883e+00       4.75306e+00       9.95495e-05       6.11639e+01
 19.300      2.14189e+02       9.90268e+00       4.63675e+00       9.78862e-05       6.01729e+01
 19.400      2.14305e+02       9.88075e+00       4.52501e+00       9.62471e-05       5.91974e+01
 19.500      2.14426e+02       9.86187e+00       4.41861e+00       9.46328e-05       5.82373e+01
 19.600      2.14551e+02       9.84489e+00       4.31829e+00       9.30440e-05       5.72929e+01
 19.700      2.14679e+02       9.82863e+00       4.22482e+00       9.14812e-05       5.63642e+01
 19.800      2.14810e+02       9.81194e+00       4.13896e+00       8.99450e-05       5.54514e+01
 19.900      2.14942e+02       9.79365e+00       4.06145e+00       8.84358e-05       5.45546e+01
 20.000      2.15075e+02       9.77260e+00       3.99306e+00       8.69540e-05       5.36737e+01
 20.100      2.15208e+02       9.74763e+00       3.93454e+00       8.55001e-05       5.28089e+01
 20.200      2.15340e+02       9.71758e+00       3.88666e+00       8.40742e-05       5.19601e+01
 20.300      2.15471e+02       9.68127e+00       3.85017e+00       8.26767e-05       5.11274e+01
