# Data Source: NASA GEOS5 Near-Real-Time
# Model Time = 2010-05-31 18:00:00
# Location = [  39.7393, -104.9900 ]
# Fields = [ Z(km), T(K), U(m/s), V(m/s), R(g/cm3), P(mbar) ]
# Ground Height = 1.589
  0.000      3.05840e+02       1.63732e+00      -1.80937e-02       1.15280e-03       1.01188e+03
  0.100      3.05199e+02       1.60332e+00      -1.54745e-02       1.14174e-03       1.00008e+03
  0.200      3.04559e+02       1.56927e+00      -1.28768e-02       1.13080e-03       9.88410e+02
  0.300      3.03905e+02       1.54241e+00      -7.04397e-03       1.12001e-03       9.76879e+02
  0.400      3.03228e+02       1.52839e+00       2.79002e-03       1.10942e-03       9.65486e+02
  0.500      3.02547e+02       1.52261e+00       9.67025e-04       1.09895e-03       9.54227e+02
  0.600      3.01888e+02       1.51670e+00      -3.20696e-02       1.08851e-03       9.43104e+02
  0.700      3.01245e+02       1.50776e+00      -7.79939e-02       1.07812e-03       9.32114e+02
  0.800      3.00589e+02       1.49692e+00      -9.15575e-02       1.06789e-03       9.21258e+02
  0.900      2.99912e+02       1.48699e+00      -6.27926e-02       1.05784e-03       9.10533e+02
  1.000      2.99237e+02       1.48313e+00      -3.55196e-02       1.04788e-03       8.99934e+02
  1.100      2.98587e+02       1.48706e+00      -4.59948e-02       1.03794e-03       8.89456e+02
  1.200      2.97963e+02       1.48619e+00      -8.34444e-02       1.02801e-03       8.79104e+02
  1.300      2.97364e+02       1.46629e+00      -1.26286e-01       1.01810e-03       8.68886e+02
  1.400      2.96759e+02       1.44098e+00      -1.63877e-01       1.00834e-03       8.58799e+02
  1.500      2.96098e+02       1.44532e+00      -1.93988e-01       9.98863e-04       8.48834e+02
  1.600      2.95348e+02       1.50084e+00      -2.11186e-01       9.89778e-04       8.38983e+02
  1.700      2.94527e+02       1.58930e+00      -2.00368e-01       9.81011e-04       8.29241e+02
  1.800      2.93662e+02       1.68581e+00      -1.45926e-01       9.72465e-04       8.19603e+02
  1.900      2.92781e+02       1.77111e+00      -5.30578e-02       9.64039e-04       8.10063e+02
  2.000      2.91911e+02       1.83068e+00       5.53086e-02       9.55634e-04       8.00615e+02
  2.100      2.91074e+02       1.85646e+00       1.57234e-01       9.47173e-04       7.91251e+02
  2.200      2.90262e+02       1.87097e+00       2.38357e-01       9.38686e-04       7.81975e+02
  2.300      2.89460e+02       1.90590e+00       2.86713e-01       9.30232e-04       7.72790e+02
  2.400      2.88651e+02       1.97576e+00       3.03052e-01       9.21862e-04       7.63697e+02
  2.500      2.87827e+02       2.06090e+00       3.13397e-01       9.13606e-04       7.54696e+02
  2.600      2.86976e+02       2.13863e+00       3.46147e-01       9.05494e-04       7.45783e+02
  2.700      2.86090e+02       2.21223e+00       4.13891e-01       8.97546e-04       7.36956e+02
  2.800      2.85161e+02       2.31270e+00       5.12308e-01       8.89781e-04       7.28207e+02
  2.900      2.84182e+02       2.47014e+00       6.35770e-01       8.82211e-04       7.19534e+02
  3.000      2.83166e+02       2.68480e+00       7.72294e-01       8.74793e-04       7.10933e+02
  3.100      2.82140e+02       2.93576e+00       9.05389e-01       8.67446e-04       7.02408e+02
  3.200      2.81129e+02       3.20310e+00       1.01962e+00       8.60095e-04       6.93960e+02
  3.300      2.80141e+02       3.48112e+00       1.11077e+00       8.52716e-04       6.85587e+02
  3.400      2.79173e+02       3.77218e+00       1.18099e+00       8.45314e-04       6.77288e+02
  3.500      2.78224e+02       4.07856e+00       1.23209e+00       8.37897e-04       6.69063e+02
  3.600      2.77288e+02       4.40114e+00       1.26226e+00       8.30478e-04       6.60909e+02
  3.700      2.76361e+02       4.74002e+00       1.26766e+00       8.23078e-04       6.52828e+02
  3.800      2.75435e+02       5.09579e+00       1.24551e+00       8.15712e-04       6.44820e+02
  3.900      2.74510e+02       5.47538e+00       1.20634e+00       8.08389e-04       6.36884e+02
  4.000      2.73584e+02       5.89000e+00       1.16969e+00       8.01106e-04       6.29018e+02
  4.100      2.72659e+02       6.35074e+00       1.15476e+00       7.93863e-04       6.21223e+02
  4.200      2.71739e+02       6.86311e+00       1.16750e+00       7.86646e-04       6.13498e+02
  4.300      2.70833e+02       7.42688e+00       1.20015e+00       7.79429e-04       6.05843e+02
  4.400      2.69950e+02       8.04151e+00       1.24429e+00       7.72190e-04       5.98260e+02
  4.500      2.69096e+02       8.70840e+00       1.29270e+00       7.64915e-04       5.90747e+02
  4.600      2.68263e+02       9.43282e+00       1.34056e+00       7.57624e-04       5.83306e+02
  4.700      2.67446e+02       1.02205e+01       1.38332e+00       7.50336e-04       5.75935e+02
  4.800      2.66639e+02       1.10746e+01       1.41768e+00       7.43066e-04       5.68633e+02
  4.900      2.65847e+02       1.19830e+01       1.44740e+00       7.35802e-04       5.61402e+02
  5.000      2.65079e+02       1.29282e+01       1.47883e+00       7.28522e-04       5.54243e+02
  5.100      2.64344e+02       1.38927e+01       1.51832e+00       7.21206e-04       5.47156e+02
  5.200      2.63645e+02       1.48603e+01       1.57201e+00       7.13847e-04       5.40141e+02
  5.300      2.62980e+02       1.58167e+01       1.64575e+00       7.06454e-04       5.33199e+02
  5.400      2.62345e+02       1.67476e+01       1.74538e+00       6.99040e-04       5.26328e+02
  5.500      2.61737e+02       1.76399e+01       1.87366e+00       6.91612e-04       5.19529e+02
  5.600      2.61158e+02       1.84884e+01       2.01101e+00       6.84171e-04       5.12802e+02
  5.700      2.60611e+02       1.92911e+01       2.12799e+00       6.76711e-04       5.06148e+02
  5.800      2.60100e+02       2.00463e+01       2.19512e+00       6.69226e-04       4.99569e+02
  5.900      2.59624e+02       2.07504e+01       2.19199e+00       6.61725e-04       4.93066e+02
  6.000      2.59165e+02       2.13947e+01       2.12790e+00       6.54253e-04       4.86636e+02
  6.100      2.58701e+02       2.19690e+01       2.01827e+00       6.46864e-04       4.80279e+02
  6.200      2.58211e+02       2.24635e+01       1.87853e+00       6.39608e-04       4.73992e+02
  6.300      2.57680e+02       2.28728e+01       1.72171e+00       6.32518e-04       4.67774e+02
  6.400      2.57111e+02       2.32034e+01       1.55498e+00       6.25584e-04       4.61623e+02
  6.500      2.56507e+02       2.34635e+01       1.38460e+00       6.18793e-04       4.55540e+02
  6.600      2.55875e+02       2.36614e+01       1.21682e+00       6.12129e-04       4.49523e+02
  6.700      2.55217e+02       2.38066e+01       1.05728e+00       6.05583e-04       4.43572e+02
  6.800      2.54536e+02       2.39130e+01       9.09685e-01       5.99144e-04       4.37685e+02
  6.900      2.53833e+02       2.39952e+01       7.77353e-01       5.92808e-04       4.31861e+02
  7.000      2.53110e+02       2.40681e+01       6.63599e-01       5.86568e-04       4.26098e+02
  7.100      2.52368e+02       2.41448e+01       5.71417e-01       5.80419e-04       4.20395e+02
  7.200      2.51609e+02       2.42275e+01       5.01499e-01       5.74355e-04       4.14752e+02
  7.300      2.50833e+02       2.43136e+01       4.53523e-01       5.68372e-04       4.09167e+02
  7.400      2.50043e+02       2.44004e+01       4.27165e-01       5.62468e-04       4.03640e+02
  7.500      2.49239e+02       2.44853e+01       4.22065e-01       5.56637e-04       3.98171e+02
  7.600      2.48424e+02       2.45701e+01       4.35739e-01       5.50874e-04       3.92760e+02
  7.700      2.47602e+02       2.46628e+01       4.62430e-01       5.45166e-04       3.87405e+02
  7.800      2.46779e+02       2.47721e+01       4.96105e-01       5.39502e-04       3.82106e+02
  7.900      2.45959e+02       2.49067e+01       5.30726e-01       5.33872e-04       3.76861e+02
  8.000      2.45146e+02       2.50740e+01       5.60759e-01       5.28265e-04       3.71671e+02
  8.100      2.44340e+02       2.52659e+01       5.87001e-01       5.22684e-04       3.66535e+02
  8.200      2.43534e+02       2.54631e+01       6.14608e-01       5.17141e-04       3.61453e+02
  8.300      2.42725e+02       2.56466e+01       6.48823e-01       5.11647e-04       3.56424e+02
  8.400      2.41907e+02       2.57969e+01       6.94886e-01       5.06212e-04       3.51450e+02
  8.500      2.41076e+02       2.58965e+01       7.57522e-01       5.00846e-04       3.46529e+02
  8.600      2.40233e+02       2.59448e+01       8.36215e-01       4.95544e-04       3.41662e+02
  8.700      2.39383e+02       2.59513e+01       9.27410e-01       4.90294e-04       3.36846e+02
  8.800      2.38532e+02       2.59253e+01       1.02752e+00       4.85086e-04       3.32083e+02
  8.900      2.37684e+02       2.58763e+01       1.13295e+00       4.79907e-04       3.27370e+02
  9.000      2.36845e+02       2.58138e+01       1.24022e+00       4.74748e-04       3.22707e+02
  9.100      2.36016e+02       2.57453e+01       1.34825e+00       4.69604e-04       3.18094e+02
  9.200      2.35198e+02       2.56771e+01       1.45842e+00       4.64477e-04       3.13531e+02
  9.300      2.34390e+02       2.56152e+01       1.57221e+00       4.59369e-04       3.09017e+02
  9.400      2.33591e+02       2.55655e+01       1.69113e+00       4.54282e-04       3.04554e+02
  9.500      2.32801e+02       2.55340e+01       1.81666e+00       4.49217e-04       3.00139e+02
  9.600      2.32019e+02       2.55254e+01       1.94968e+00       4.44177e-04       2.95775e+02
  9.700      2.31244e+02       2.55375e+01       2.08844e+00       4.39163e-04       2.91459e+02
  9.800      2.30475e+02       2.55668e+01       2.23043e+00       4.34178e-04       2.87193e+02
  9.900      2.29712e+02       2.56094e+01       2.37316e+00       4.29223e-04       2.82975e+02
 10.000      2.28953e+02       2.56616e+01       2.51413e+00       4.24301e-04       2.78806e+02
 10.100      2.28198e+02       2.57196e+01       2.65085e+00       4.19413e-04       2.74685e+02
 10.200      2.27445e+02       2.57796e+01       2.78155e+00       4.14562e-04       2.70612e+02
 10.300      2.26690e+02       2.58366e+01       2.90677e+00       4.09754e-04       2.66586e+02
 10.400      2.25930e+02       2.58858e+01       3.02753e+00       4.04996e-04       2.62607e+02
 10.500      2.25161e+02       2.59223e+01       3.14483e+00       4.00293e-04       2.58674e+02
 10.600      2.24379e+02       2.59410e+01       3.25968e+00       3.95651e-04       2.54787e+02
 10.700      2.23580e+02       2.59372e+01       3.37309e+00       3.91077e-04       2.50945e+02
 10.800      2.22762e+02       2.59070e+01       3.48611e+00       3.86574e-04       2.47147e+02
 10.900      2.21926e+02       2.58577e+01       3.60015e+00       3.82136e-04       2.43393e+02
 11.000      2.21080e+02       2.58021e+01       3.71684e+00       3.77751e-04       2.39683e+02
 11.100      2.20229e+02       2.57532e+01       3.83778e+00       3.73408e-04       2.36015e+02
 11.200      2.19380e+02       2.57236e+01       3.96458e+00       3.69096e-04       2.32390e+02
 11.300      2.18538e+02       2.57263e+01       4.09885e+00       3.64804e-04       2.28807e+02
 11.400      2.17711e+02       2.57740e+01       4.24221e+00       3.60522e-04       2.25265e+02
 11.500      2.16904e+02       2.58763e+01       4.39686e+00       3.56240e-04       2.21765e+02
 11.600      2.16125e+02       2.60252e+01       4.56798e+00       3.51948e-04       2.18305e+02
 11.700      2.15380e+02       2.62074e+01       4.76169e+00       3.47637e-04       2.14888e+02
 11.800      2.14678e+02       2.64095e+01       4.98412e+00       3.43297e-04       2.11514e+02
 11.900      2.14025e+02       2.66182e+01       5.24136e+00       3.38921e-04       2.08183e+02
 12.000      2.13429e+02       2.68203e+01       5.53956e+00       3.34501e-04       2.04895e+02
 12.100      2.12897e+02       2.70023e+01       5.88483e+00       3.30028e-04       2.01652e+02
 12.200      2.12437e+02       2.71514e+01       6.28267e+00       3.25496e-04       1.98453e+02
 12.300      2.12051e+02       2.72641e+01       6.72382e+00       3.20905e-04       1.95299e+02
 12.400      2.11740e+02       2.73469e+01       7.18362e+00       3.16260e-04       1.92189e+02
 12.500      2.11502e+02       2.74066e+01       7.63672e+00       3.11569e-04       1.89126e+02
 12.600      2.11336e+02       2.74502e+01       8.05774e+00       3.06838e-04       1.86108e+02
 12.700      2.11241e+02       2.74844e+01       8.42131e+00       3.02074e-04       1.83136e+02
 12.800      2.11218e+02       2.75163e+01       8.70208e+00       2.97282e-04       1.80211e+02
 12.900      2.11263e+02       2.75528e+01       8.87467e+00       2.92469e-04       1.77331e+02
 13.000      2.11378e+02       2.76006e+01       8.91377e+00       2.87641e-04       1.74499e+02
 13.100      2.11558e+02       2.76613e+01       8.80677e+00       2.82808e-04       1.71713e+02
 13.200      2.11794e+02       2.77237e+01       8.57128e+00       2.77986e-04       1.68973e+02
 13.300      2.12076e+02       2.77748e+01       8.22925e+00       2.73191e-04       1.66281e+02
 13.400      2.12395e+02       2.78016e+01       7.80267e+00       2.68441e-04       1.63634e+02
 13.500      2.12739e+02       2.77909e+01       7.31351e+00       2.63748e-04       1.61034e+02
 13.600      2.13099e+02       2.77299e+01       6.78373e+00       2.59127e-04       1.58481e+02
 13.700      2.13465e+02       2.76053e+01       6.23531e+00       2.54590e-04       1.55974e+02
 13.800      2.13827e+02       2.74043e+01       5.69022e+00       2.50149e-04       1.53512e+02
 13.900      2.14174e+02       2.71138e+01       5.17044e+00       2.45814e-04       1.51097e+02
 14.000      2.14498e+02       2.67213e+01       4.69730e+00       2.41594e-04       1.48727e+02
 14.100      2.14791e+02       2.62277e+01       4.28006e+00       2.37490e-04       1.46401e+02
 14.200      2.15056e+02       2.56455e+01       3.91704e+00       2.33498e-04       1.44117e+02
 14.300      2.15290e+02       2.49874e+01       3.60619e+00       2.29611e-04       1.41872e+02
 14.400      2.15493e+02       2.42667e+01       3.34546e+00       2.25824e-04       1.39664e+02
 14.500      2.15666e+02       2.34960e+01       3.13278e+00       2.22133e-04       1.37492e+02
 14.600      2.15807e+02       2.26884e+01       2.96610e+00       2.18533e-04       1.35352e+02
 14.700      2.15917e+02       2.18568e+01       2.84336e+00       2.15019e-04       1.33243e+02
 14.800      2.15994e+02       2.10142e+01       2.76251e+00       2.11587e-04       1.31164e+02
 14.900      2.16039e+02       2.01734e+01       2.72150e+00       2.08234e-04       1.29112e+02
 15.000      2.16051e+02       1.93474e+01       2.71825e+00       2.04955e-04       1.27085e+02
 15.100      2.16029e+02       1.85491e+01       2.75072e+00       2.01746e-04       1.25084e+02
 15.200      2.15975e+02       1.77893e+01       2.81656e+00       1.98605e-04       1.23105e+02
 15.300      2.15890e+02       1.70688e+01       2.91211e+00       1.95528e-04       1.21150e+02
 15.400      2.15779e+02       1.63856e+01       3.03336e+00       1.92514e-04       1.19221e+02
 15.500      2.15646e+02       1.57376e+01       3.17626e+00       1.89558e-04       1.17318e+02
 15.600      2.15493e+02       1.51229e+01       3.33679e+00       1.86660e-04       1.15443e+02
 15.700      2.15326e+02       1.45394e+01       3.51092e+00       1.83817e-04       1.13596e+02
 15.800      2.15148e+02       1.39852e+01       3.69463e+00       1.81026e-04       1.11779e+02
 15.900      2.14962e+02       1.34583e+01       3.88388e+00       1.78286e-04       1.09992e+02
 16.000      2.14773e+02       1.29565e+01       4.07465e+00       1.75594e-04       1.08236e+02
 16.100      2.14584e+02       1.24780e+01       4.26292e+00       1.72949e-04       1.06511e+02
 16.200      2.14399e+02       1.20208e+01       4.44464e+00       1.70348e-04       1.04819e+02
 16.300      2.14222e+02       1.15827e+01       4.61580e+00       1.67790e-04       1.03160e+02
 16.400      2.14056e+02       1.11619e+01       4.77237e+00       1.65273e-04       1.01534e+02
 16.500      2.13906e+02       1.07562e+01       4.91031e+00       1.62796e-04       9.99422e+01
 16.600      2.13775e+02       1.03641e+01       5.02655e+00       1.60356e-04       9.83839e+01
 16.700      2.13661e+02       9.98499e+00       5.12135e+00       1.57953e-04       9.68580e+01
 16.800      2.13565e+02       9.61866e+00       5.19574e+00       1.55585e-04       9.53630e+01
 16.900      2.13486e+02       9.26484e+00       5.25076e+00       1.53251e-04       9.38974e+01
 17.000      2.13423e+02       8.92329e+00       5.28743e+00       1.50949e-04       9.24599e+01
 17.100      2.13374e+02       8.59376e+00       5.30679e+00       1.48680e-04       9.10490e+01
 17.200      2.13340e+02       8.27601e+00       5.30985e+00       1.46441e-04       8.96635e+01
 17.300      2.13319e+02       7.96979e+00       5.29766e+00       1.44231e-04       8.83022e+01
 17.400      2.13311e+02       7.67484e+00       5.27123e+00       1.42051e-04       8.69638e+01
 17.500      2.13314e+02       7.39093e+00       5.23161e+00       1.39898e-04       8.56473e+01
 17.600      2.13329e+02       7.11780e+00       5.17981e+00       1.37772e-04       8.43515e+01
 17.700      2.13353e+02       6.85521e+00       5.11687e+00       1.35673e-04       8.30755e+01
 17.800      2.13387e+02       6.60292e+00       5.04382e+00       1.33598e-04       8.18183e+01
 17.900      2.13429e+02       6.36066e+00       4.96168e+00       1.31548e-04       8.05788e+01
 18.000      2.13479e+02       6.12819e+00       4.87149e+00       1.29522e-04       7.93564e+01
 18.100      2.13536e+02       5.90527e+00       4.77428e+00       1.27519e-04       7.81500e+01
 18.200      2.13599e+02       5.69165e+00       4.67106e+00       1.25539e-04       7.69589e+01
 18.300      2.13667e+02       5.48708e+00       4.56289e+00       1.23580e-04       7.57824e+01
 18.400      2.13739e+02       5.29131e+00       4.45077e+00       1.21643e-04       7.46197e+01
 18.500      2.13815e+02       5.10410e+00       4.33574e+00       1.19726e-04       7.34701e+01
 18.600      2.13894e+02       4.92519e+00       4.21884e+00       1.17830e-04       7.23330e+01
 18.700      2.13975e+02       4.75434e+00       4.10109e+00       1.15953e-04       7.12077e+01
 18.800      2.14057e+02       4.59131e+00       3.98351e+00       1.14095e-04       7.00937e+01
 18.900      2.14139e+02       4.43577e+00       3.86706e+00       1.12256e-04       6.89906e+01
 19.000      2.14222e+02       4.28699e+00       3.75219e+00       1.10437e-04       6.78986e+01
 19.100      2.14305e+02       4.14416e+00       3.63925e+00       1.08638e-04       6.68185e+01
 19.200      2.14389e+02       4.00641e+00       3.52854e+00       1.06860e-04       6.57508e+01
 19.300      2.14473e+02       3.87292e+00       3.42040e+00       1.05105e-04       6.46959e+01
 19.400      2.14557e+02       3.74285e+00       3.31514e+00       1.03372e-04       6.36542e+01
 19.500      2.14642e+02       3.61534e+00       3.21310e+00       1.01663e-04       6.26263e+01
 19.600      2.14727e+02       3.48957e+00       3.11459e+00       9.99771e-05       6.16125e+01
 19.700      2.14813e+02       3.36469e+00       3.01994e+00       9.83162e-05       6.06132e+01
 19.800      2.14900e+02       3.23987e+00       2.92948e+00       9.66804e-05       5.96288e+01
 19.900      2.14987e+02       3.11425e+00       2.84352e+00       9.50701e-05       5.86593e+01
 20.000      2.15075e+02       2.98701e+00       2.76240e+00       9.34856e-05       5.77053e+01
 20.100      2.15163e+02       2.85730e+00       2.68643e+00       9.19274e-05       5.67668e+01
 20.200      2.15252e+02       2.72428e+00       2.61594e+00       9.03958e-05       5.58442e+01
 20.300      2.15343e+02       2.58712e+00       2.55125e+00       8.88910e-05       5.49376e+01
