# Data Source: NASA MERRA (version 2)
# Model Time = 2011-05-08 18:00:00
# Location = [  39.1026,  -84.5123 ]
# Fields = [ Z(km), T(K), U(m/s), V(m/s), R(g/cm3), P(mbar) ]
# Ground Height = 0.165
  0.000      2.92812e+02      -3.45093e+00      -8.95278e-01       1.20693e-03       1.01426e+03
  0.100      2.92034e+02      -3.56378e+00      -9.19268e-01       1.19606e-03       1.00246e+03
  0.200      2.91285e+02      -3.66490e+00      -9.50584e-01       1.18518e-03       9.90794e+02
  0.300      2.90426e+02      -3.81016e+00      -9.54322e-01       1.17484e-03       9.79255e+02
  0.400      2.89333e+02      -4.05036e+00      -8.97266e-01       1.16552e-03       9.67830e+02
  0.500      2.88100e+02      -4.36831e+00      -7.68824e-01       1.15681e-03       9.56507e+02
  0.600      2.86973e+02      -4.69938e+00      -5.75264e-01       1.14772e-03       9.45274e+02
  0.700      2.86056e+02      -5.01521e+00      -3.47883e-01       1.13782e-03       9.34128e+02
  0.800      2.85279e+02      -5.33304e+00      -1.48248e-01       1.12742e-03       9.23076e+02
  0.900      2.84601e+02      -5.60650e+00      -3.50005e-02       1.11670e-03       9.12128e+02
  1.000      2.84074e+02      -5.63019e+00      -5.53301e-02       1.10548e-03       9.01289e+02
  1.100      2.83749e+02      -5.21474e+00      -2.43791e-01       1.09358e-03       8.90567e+02
  1.200      2.83578e+02      -4.39699e+00      -5.71999e-01       1.08121e-03       8.79963e+02
  1.300      2.83482e+02      -3.29436e+00      -9.89141e-01       1.06868e-03       8.69475e+02
  1.400      2.83379e+02      -2.02437e+00      -1.44437e+00       1.05632e-03       8.59103e+02
  1.500      2.83188e+02      -7.04522e-01      -1.88687e+00       1.04441e-03       8.48847e+02
  1.600      2.82851e+02       5.72405e-01      -2.27767e+00       1.03316e-03       8.38704e+02
  1.700      2.82377e+02       1.78440e+00      -2.61176e+00       1.02252e-03       8.28669e+02
  1.800      2.81788e+02       2.92201e+00      -2.89019e+00       1.01237e-03       8.18736e+02
  1.900      2.81104e+02       3.97580e+00      -3.11397e+00       1.00264e-03       8.08899e+02
  2.000      2.80346e+02       4.93632e+00      -3.28415e+00       9.93238e-04       7.99152e+02
  2.100      2.79539e+02       5.79683e+00      -3.40836e+00       9.84064e-04       7.89492e+02
  2.200      2.78719e+02       6.55894e+00      -3.51460e+00       9.74994e-04       7.79920e+02
  2.300      2.77922e+02       7.22586e+00      -3.63478e+00       9.65900e-04       7.70438e+02
  2.400      2.77188e+02       7.80079e+00      -3.80081e+00       9.56655e-04       7.61046e+02
  2.500      2.76552e+02       8.28696e+00      -4.04460e+00       9.47137e-04       7.51747e+02
  2.600      2.76047e+02       8.68784e+00      -4.39277e+00       9.37252e-04       7.42542e+02
  2.700      2.75657e+02       9.00887e+00      -4.83415e+00       9.27064e-04       7.33432e+02
  2.800      2.75345e+02       9.25632e+00      -5.34118e+00       9.16707e-04       7.24419e+02
  2.900      2.75076e+02       9.43650e+00      -5.88622e+00       9.06308e-04       7.15502e+02
  3.000      2.74814e+02       9.55567e+00      -6.44162e+00       8.95991e-04       7.06684e+02
  3.100      2.74523e+02       9.62015e+00      -6.97982e+00       8.85873e-04       6.97964e+02
  3.200      2.74182e+02       9.63914e+00      -7.48324e+00       8.76022e-04       6.89343e+02
  3.300      2.73796e+02       9.62772e+00      -7.95454e+00       8.66408e-04       6.80818e+02
  3.400      2.73376e+02       9.60166e+00      -8.39883e+00       8.56994e-04       6.72389e+02
  3.500      2.72933e+02       9.57677e+00      -8.82124e+00       8.47742e-04       6.64051e+02
  3.600      2.72476e+02       9.56881e+00      -9.22687e+00       8.38618e-04       6.55805e+02
  3.700      2.72016e+02       9.59351e+00      -9.62084e+00       8.29586e-04       6.47646e+02
  3.800      2.71559e+02       9.66126e+00      -1.00078e+01       8.20628e-04       6.39575e+02
  3.900      2.71101e+02       9.77310e+00      -1.03916e+01       8.11751e-04       6.31591e+02
  4.000      2.70641e+02       9.92917e+00      -1.07760e+01       8.02962e-04       6.23693e+02
  4.100      2.70176e+02       1.01296e+01      -1.11648e+01       7.94271e-04       6.15881e+02
  4.200      2.69701e+02       1.03745e+01      -1.15617e+01       7.85686e-04       6.08154e+02
  4.300      2.69215e+02       1.06640e+01      -1.19706e+01       7.77213e-04       6.00513e+02
  4.400      2.68715e+02       1.09960e+01      -1.23938e+01       7.68860e-04       5.92955e+02
  4.500      2.68200e+02       1.13577e+01      -1.28265e+01       7.60627e-04       5.85480e+02
  4.600      2.67668e+02       1.17330e+01      -1.32619e+01       7.52512e-04       5.78085e+02
  4.700      2.67119e+02       1.21058e+01      -1.36931e+01       7.44515e-04       5.70769e+02
  4.800      2.66553e+02       1.24600e+01      -1.41133e+01       7.36633e-04       5.63530e+02
  4.900      2.65969e+02       1.27794e+01      -1.45155e+01       7.28866e-04       5.56367e+02
  5.000      2.65366e+02       1.30479e+01      -1.48930e+01       7.21213e-04       5.49277e+02
  5.100      2.64744e+02       1.32563e+01      -1.52412e+01       7.13672e-04       5.42259e+02
  5.200      2.64102e+02       1.34156e+01      -1.55634e+01       7.06242e-04       5.35312e+02
  5.300      2.63442e+02       1.35403e+01      -1.58639e+01       6.98920e-04       5.28438e+02
  5.400      2.62763e+02       1.36452e+01      -1.61472e+01       6.91704e-04       5.21634e+02
  5.500      2.62066e+02       1.37449e+01      -1.64176e+01       6.84592e-04       5.14902e+02
  5.600      2.61351e+02       1.38540e+01      -1.66796e+01       6.77583e-04       5.08240e+02
  5.700      2.60619e+02       1.39872e+01      -1.69376e+01       6.70674e-04       5.01648e+02
  5.800      2.59869e+02       1.41581e+01      -1.71956e+01       6.63864e-04       4.95127e+02
  5.900      2.59104e+02       1.43703e+01      -1.74540e+01       6.57147e-04       4.88673e+02
  6.000      2.58324e+02       1.46226e+01      -1.77116e+01       6.50517e-04       4.82286e+02
  6.100      2.57530e+02       1.49136e+01      -1.79669e+01       6.43967e-04       4.75962e+02
  6.200      2.56723e+02       1.52418e+01      -1.82186e+01       6.37492e-04       4.69701e+02
  6.300      2.55906e+02       1.56060e+01      -1.84653e+01       6.31085e-04       4.63500e+02
  6.400      2.55078e+02       1.60047e+01      -1.87055e+01       6.24741e-04       4.57357e+02
  6.500      2.54242e+02       1.64366e+01      -1.89380e+01       6.18454e-04       4.51271e+02
  6.600      2.53399e+02       1.68995e+01      -1.91610e+01       6.12220e-04       4.45240e+02
  6.700      2.52550e+02       1.73851e+01      -1.93708e+01       6.06036e-04       4.39266e+02
  6.800      2.51697e+02       1.78821e+01      -1.95625e+01       5.99904e-04       4.33352e+02
  6.900      2.50841e+02       1.83794e+01      -1.97315e+01       5.93822e-04       4.27501e+02
  7.000      2.49984e+02       1.88657e+01      -1.98728e+01       5.87792e-04       4.21715e+02
  7.100      2.49129e+02       1.93299e+01      -1.99816e+01       5.81814e-04       4.15997e+02
  7.200      2.48276e+02       1.97607e+01      -2.00533e+01       5.75886e-04       4.10349e+02
  7.300      2.47428e+02       2.01469e+01      -2.00830e+01       5.70010e-04       4.04774e+02
  7.400      2.46585e+02       2.04774e+01      -2.00659e+01       5.64185e-04       3.99273e+02
  7.500      2.45750e+02       2.07460e+01      -2.00011e+01       5.58408e-04       3.93846e+02
  7.600      2.44921e+02       2.09602e+01      -1.98979e+01       5.52668e-04       3.88483e+02
  7.700      2.44098e+02       2.11296e+01      -1.97677e+01       5.46954e-04       3.83174e+02
  7.800      2.43279e+02       2.12641e+01      -1.96215e+01       5.41256e-04       3.77911e+02
  7.900      2.42465e+02       2.13734e+01      -1.94705e+01       5.35563e-04       3.72685e+02
  8.000      2.41654e+02       2.14673e+01      -1.93259e+01       5.29865e-04       3.67486e+02
  8.100      2.40845e+02       2.15554e+01      -1.91989e+01       5.24154e-04       3.62308e+02
  8.200      2.40037e+02       2.16475e+01      -1.91007e+01       5.18420e-04       3.57143e+02
  8.300      2.39230e+02       2.17534e+01      -1.90423e+01       5.12655e-04       3.51984e+02
  8.400      2.38423e+02       2.18825e+01      -1.90344e+01       5.06853e-04       3.46827e+02
  8.500      2.37617e+02       2.20389e+01      -1.90769e+01       5.01032e-04       3.41684e+02
  8.600      2.36812e+02       2.22231e+01      -1.91625e+01       4.95230e-04       3.36583e+02
  8.700      2.36010e+02       2.24353e+01      -1.92835e+01       4.89482e-04       3.31550e+02
  8.800      2.35213e+02       2.26757e+01      -1.94323e+01       4.83821e-04       3.26609e+02
  8.900      2.34422e+02       2.29448e+01      -1.96012e+01       4.78278e-04       3.21781e+02
  9.000      2.33638e+02       2.32427e+01      -1.97826e+01       4.72886e-04       3.17089e+02
  9.100      2.32862e+02       2.35698e+01      -1.99689e+01       4.67671e-04       3.12551e+02
  9.200      2.32097e+02       2.39264e+01      -2.01525e+01       4.62663e-04       3.08188e+02
  9.300      2.31343e+02       2.43127e+01      -2.03256e+01       4.57887e-04       3.04016e+02
  9.400      2.30602e+02       2.47289e+01      -2.04807e+01       4.53368e-04       3.00052e+02
  9.500      2.29875e+02       2.51746e+01      -2.06113e+01       4.49123e-04       2.96305e+02
  9.600      2.29161e+02       2.56450e+01      -2.07167e+01       4.45128e-04       2.92757e+02
  9.700      2.28459e+02       2.61347e+01      -2.07971e+01       4.41351e-04       2.89383e+02
  9.800      2.27768e+02       2.66379e+01      -2.08529e+01       4.37761e-04       2.86161e+02
  9.900      2.27087e+02       2.71492e+01      -2.08848e+01       4.34328e-04       2.83069e+02
 10.000      2.26415e+02       2.76629e+01      -2.08929e+01       4.31024e-04       2.80085e+02
 10.100      2.25752e+02       2.81735e+01      -2.08779e+01       4.27822e-04       2.77189e+02
 10.200      2.25095e+02       2.86753e+01      -2.08400e+01       4.24694e-04       2.74362e+02
 10.300      2.24444e+02       2.91628e+01      -2.07798e+01       4.21614e-04       2.71584e+02
 10.400      2.23798e+02       2.96303e+01      -2.06976e+01       4.18558e-04       2.68839e+02
 10.500      2.23155e+02       3.00724e+01      -2.05939e+01       4.15500e-04       2.66109e+02
 10.600      2.22516e+02       3.04833e+01      -2.04692e+01       4.12417e-04       2.63378e+02
 10.700      2.21877e+02       3.08575e+01      -2.03238e+01       4.09287e-04       2.60629e+02
 10.800      2.21240e+02       3.11895e+01      -2.01581e+01       4.06085e-04       2.57847e+02
 10.900      2.20602e+02       3.14735e+01      -1.99727e+01       4.02793e-04       2.55019e+02
 11.000      2.19963e+02       3.17041e+01      -1.97679e+01       3.99388e-04       2.52130e+02
 11.100      2.19321e+02       3.18757e+01      -1.95441e+01       3.95850e-04       2.49168e+02
 11.200      2.18677e+02       3.19856e+01      -1.93027e+01       3.92168e-04       2.46125e+02
 11.300      2.18035e+02       3.20365e+01      -1.90461e+01       3.88335e-04       2.43005e+02
 11.400      2.17401e+02       3.20316e+01      -1.87771e+01       3.84350e-04       2.39811e+02
 11.500      2.16777e+02       3.19740e+01      -1.84985e+01       3.80209e-04       2.36547e+02
 11.600      2.16168e+02       3.18669e+01      -1.82130e+01       3.75912e-04       2.33217e+02
 11.700      2.15580e+02       3.17135e+01      -1.79234e+01       3.71456e-04       2.29826e+02
 11.800      2.15016e+02       3.15171e+01      -1.76324e+01       3.66842e-04       2.26376e+02
 11.900      2.14480e+02       3.12807e+01      -1.73427e+01       3.62067e-04       2.22873e+02
 12.000      2.13977e+02       3.10076e+01      -1.70571e+01       3.57132e-04       2.19320e+02
 12.100      2.13512e+02       3.07009e+01      -1.67784e+01       3.52038e-04       2.15721e+02
 12.200      2.13088e+02       3.03639e+01      -1.65093e+01       3.46786e-04       2.12081e+02
 12.300      2.12710e+02       2.99996e+01      -1.62525e+01       3.41378e-04       2.08404e+02
 12.400      2.12383e+02       2.96114e+01      -1.60108e+01       3.35817e-04       2.04693e+02
 12.500      2.12111e+02       2.92023e+01      -1.57869e+01       3.30104e-04       2.00953e+02
 12.600      2.11897e+02       2.87756e+01      -1.55833e+01       3.24247e-04       1.97188e+02
 12.700      2.11739e+02       2.83345e+01      -1.53994e+01       3.18271e-04       1.93411e+02
 12.800      2.11633e+02       2.78822e+01      -1.52334e+01       3.12214e-04       1.89634e+02
 12.900      2.11572e+02       2.74219e+01      -1.50832e+01       3.06109e-04       1.85873e+02
 13.000      2.11552e+02       2.69568e+01      -1.49468e+01       2.99988e-04       1.82139e+02
 13.100      2.11566e+02       2.64903e+01      -1.48223e+01       2.93881e-04       1.78443e+02
 13.200      2.11610e+02       2.60254e+01      -1.47076e+01       2.87817e-04       1.74797e+02
 13.300      2.11679e+02       2.55654e+01      -1.46009e+01       2.81820e-04       1.71211e+02
 13.400      2.11767e+02       2.51136e+01      -1.45001e+01       2.75915e-04       1.67693e+02
 13.500      2.11868e+02       2.46731e+01      -1.44031e+01       2.70124e-04       1.64252e+02
 13.600      2.11978e+02       2.42473e+01      -1.43082e+01       2.64467e-04       1.60895e+02
 13.700      2.12090e+02       2.38392e+01      -1.42132e+01       2.58961e-04       1.57629e+02
 13.800      2.12201e+02       2.34522e+01      -1.41161e+01       2.53623e-04       1.54460e+02
 13.900      2.12303e+02       2.30894e+01      -1.40151e+01       2.48467e-04       1.51394e+02
 14.000      2.12393e+02       2.27540e+01      -1.39081e+01       2.43508e-04       1.48435e+02
 14.100      2.12468e+02       2.24464e+01      -1.37946e+01       2.38743e-04       1.45582e+02
 14.200      2.12529e+02       2.21648e+01      -1.36752e+01       2.34163e-04       1.42829e+02
 14.300      2.12576e+02       2.19072e+01      -1.35503e+01       2.29755e-04       1.40172e+02
 14.400      2.12610e+02       2.16717e+01      -1.34208e+01       2.25510e-04       1.37604e+02
 14.500      2.12633e+02       2.14562e+01      -1.32872e+01       2.21418e-04       1.35122e+02
 14.600      2.12644e+02       2.12588e+01      -1.31501e+01       2.17469e-04       1.32719e+02
 14.700      2.12645e+02       2.10776e+01      -1.30102e+01       2.13655e-04       1.30392e+02
 14.800      2.12636e+02       2.09106e+01      -1.28680e+01       2.09968e-04       1.28136e+02
 14.900      2.12619e+02       2.07557e+01      -1.27242e+01       2.06399e-04       1.25948e+02
 15.000      2.12593e+02       2.06112e+01      -1.25794e+01       2.02942e-04       1.23823e+02
 15.100      2.12560e+02       2.04749e+01      -1.24343e+01       1.99589e-04       1.21759e+02
 15.200      2.12521e+02       2.03449e+01      -1.22894e+01       1.96334e-04       1.19751e+02
 15.300      2.12476e+02       2.02193e+01      -1.21455e+01       1.93170e-04       1.17796e+02
 15.400      2.12426e+02       2.00961e+01      -1.20030e+01       1.90092e-04       1.15892e+02
 15.500      2.12372e+02       1.99733e+01      -1.18627e+01       1.87094e-04       1.14035e+02
 15.600      2.12314e+02       1.98490e+01      -1.17251e+01       1.84170e-04       1.12222e+02
 15.700      2.12254e+02       1.97212e+01      -1.15908e+01       1.81315e-04       1.10451e+02
 15.800      2.12192e+02       1.95879e+01      -1.14606e+01       1.78524e-04       1.08720e+02
 15.900      2.12129e+02       1.94472e+01      -1.13350e+01       1.75794e-04       1.07025e+02
 16.000      2.12066e+02       1.92970e+01      -1.12147e+01       1.73118e-04       1.05365e+02
 16.100      2.12003e+02       1.91355e+01      -1.11002e+01       1.70494e-04       1.03737e+02
 16.200      2.11942e+02       1.89607e+01      -1.09921e+01       1.67917e-04       1.02140e+02
 16.300      2.11882e+02       1.87706e+01      -1.08912e+01       1.65384e-04       1.00570e+02
 16.400      2.11826e+02       1.85634e+01      -1.07980e+01       1.62890e-04       9.90275e+01
 16.500      2.11773e+02       1.83387e+01      -1.07122e+01       1.60434e-04       9.75099e+01
 16.600      2.11723e+02       1.80974e+01      -1.06331e+01       1.58015e-04       9.60166e+01
 16.700      2.11676e+02       1.78404e+01      -1.05599e+01       1.55630e-04       9.45470e+01
 16.800      2.11633e+02       1.75684e+01      -1.04918e+01       1.53280e-04       9.31001e+01
 16.900      2.11593e+02       1.72824e+01      -1.04279e+01       1.50962e-04       9.16753e+01
 17.000      2.11557e+02       1.69831e+01      -1.03676e+01       1.48677e-04       9.02719e+01
 17.100      2.11525e+02       1.66715e+01      -1.03101e+01       1.46422e-04       8.88892e+01
 17.200      2.11497e+02       1.63483e+01      -1.02544e+01       1.44196e-04       8.75265e+01
 17.300      2.11473e+02       1.60144e+01      -1.01999e+01       1.42000e-04       8.61833e+01
 17.400      2.11453e+02       1.56707e+01      -1.01458e+01       1.39831e-04       8.48589e+01
 17.500      2.11436e+02       1.53179e+01      -1.00913e+01       1.37689e-04       8.35527e+01
 17.600      2.11425e+02       1.49570e+01      -1.00355e+01       1.35573e-04       8.22643e+01
 17.700      2.11417e+02       1.45887e+01      -9.97775e+00       1.33483e-04       8.09930e+01
 17.800      2.11414e+02       1.42140e+01      -9.91719e+00       1.31417e-04       7.97383e+01
 17.900      2.11416e+02       1.38336e+01      -9.85306e+00       1.29375e-04       7.84999e+01
 18.000      2.11422e+02       1.34484e+01      -9.78457e+00       1.27356e-04       7.72771e+01
 18.100      2.11433e+02       1.30593e+01      -9.71091e+00       1.25360e-04       7.60696e+01
 18.200      2.11448e+02       1.26670e+01      -9.63131e+00       1.23385e-04       7.48769e+01
 18.300      2.11469e+02       1.22725e+01      -9.54498e+00       1.21432e-04       7.36987e+01
 18.400      2.11494e+02       1.18766e+01      -9.45113e+00       1.19499e-04       7.25346e+01
 18.500      2.11525e+02       1.14801e+01      -9.34896e+00       1.17587e-04       7.13841e+01
 18.600      2.11561e+02       1.10838e+01      -9.23769e+00       1.15694e-04       7.02469e+01
 18.700      2.11602e+02       1.06887e+01      -9.11665e+00       1.13820e-04       6.91228e+01
 18.800      2.11648e+02       1.02951e+01      -8.98603e+00       1.11967e-04       6.80119e+01
 18.900      2.11699e+02       9.90360e+00      -8.84643e+00       1.10134e-04       6.69146e+01
 19.000      2.11754e+02       9.51453e+00      -8.69847e+00       1.08323e-04       6.58314e+01
 19.100      2.11814e+02       9.12831e+00      -8.54274e+00       1.06534e-04       6.47625e+01
 19.200      2.11877e+02       8.74538e+00      -8.37988e+00       1.04768e-04       6.37082e+01
 19.300      2.11944e+02       8.36614e+00      -8.21047e+00       1.03026e-04       6.26688e+01
 19.400      2.12015e+02       7.99100e+00      -8.03513e+00       1.01309e-04       6.16446e+01
 19.500      2.12088e+02       7.62038e+00      -7.85448e+00       9.96164e-05       6.06357e+01
 19.600      2.12164e+02       7.25470e+00      -7.66911e+00       9.79496e-05       5.96424e+01
 19.700      2.12242e+02       6.89437e+00      -7.47964e+00       9.63086e-05       5.86649e+01
 19.800      2.12322e+02       6.53982e+00      -7.28669e+00       9.46942e-05       5.77033e+01
 19.900      2.12404e+02       6.19145e+00      -7.09085e+00       9.31063e-05       5.67576e+01
 20.000      2.12488e+02       5.84967e+00      -6.89273e+00       9.15456e-05       5.58281e+01
 20.100      2.12572e+02       5.51490e+00      -6.69295e+00       9.00122e-05       5.49148e+01
 20.200      2.12658e+02       5.18756e+00      -6.49211e+00       8.85063e-05       5.40178e+01
 20.300      2.12744e+02       4.86807e+00      -6.29083e+00       8.70282e-05       5.31371e+01
