# Data Source: NASA MERRA (version 2)
# Model Time = 2011-04-12 18:00:00
# Location = [  39.1026,  -84.5123 ]
# Fields = [ Z(km), T(K), U(m/s), V(m/s), R(g/cm3), P(mbar) ]
# Ground Height = 0.165
  0.000      2.83166e+02       5.83958e-02      -7.41732e+00       1.24827e-03       1.01445e+03
  0.100      2.82441e+02       2.24072e-03      -7.76941e+00       1.23644e-03       1.00226e+03
  0.200      2.81733e+02      -6.75278e-02      -8.07960e+00       1.22466e-03       9.90226e+02
  0.300      2.80947e+02      -7.81441e-02      -8.57184e+00       1.21331e-03       9.78317e+02
  0.400      2.80005e+02       3.22184e-02      -9.42582e+00       1.20271e-03       9.66513e+02
  0.500      2.78977e+02       2.19954e-01      -1.03947e+01       1.19252e-03       9.54807e+02
  0.600      2.78009e+02       3.83974e-01      -1.10218e+01       1.18212e-03       9.43200e+02
  0.700      2.77119e+02       4.45636e-01      -1.13027e+01       1.17145e-03       9.31693e+02
  0.800      2.76224e+02       3.43540e-01      -1.15882e+01       1.16087e-03       9.20293e+02
  0.900      2.75374e+02      -2.46046e-02      -1.19994e+01       1.15016e-03       9.09001e+02
  1.000      2.74793e+02      -8.12416e-01      -1.23581e+01       1.13842e-03       8.97822e+02
  1.100      2.74617e+02      -2.06380e+00      -1.25441e+01       1.12512e-03       8.86760e+02
  1.200      2.74759e+02      -3.56744e+00      -1.26125e+01       1.11066e-03       8.75825e+02
  1.300      2.75105e+02      -5.07701e+00      -1.26422e+01       1.09559e-03       8.65025e+02
  1.400      2.75538e+02      -6.34619e+00      -1.27120e+01       1.08040e-03       8.54369e+02
  1.500      2.75944e+02      -7.14212e+00      -1.28968e+01       1.06554e-03       8.43863e+02
  1.600      2.76265e+02      -7.44553e+00      -1.32051e+01       1.05124e-03       8.33508e+02
  1.700      2.76482e+02      -7.40774e+00      -1.35929e+01       1.03754e-03       8.23294e+02
  1.800      2.76580e+02      -7.18482e+00      -1.40142e+01       1.02447e-03       8.13212e+02
  1.900      2.76543e+02      -6.93286e+00      -1.44236e+01       1.01207e-03       8.03255e+02
  2.000      2.76356e+02      -6.79776e+00      -1.47781e+01       1.00035e-03       7.93416e+02
  2.100      2.76030e+02      -6.80897e+00      -1.50671e+01       9.89248e-04       7.83688e+02
  2.200      2.75592e+02      -6.92155e+00      -1.53003e+01       9.78657e-04       7.74067e+02
  2.300      2.75068e+02      -7.08934e+00      -1.54879e+01       9.68463e-04       7.64549e+02
  2.400      2.74486e+02      -7.26619e+00      -1.56402e+01       9.58560e-04       7.55130e+02
  2.500      2.73873e+02      -7.40665e+00      -1.57673e+01       9.48844e-04       7.45806e+02
  2.600      2.73247e+02      -7.48610e+00      -1.58805e+01       9.39245e-04       7.36575e+02
  2.700      2.72622e+02      -7.50359e+00      -1.59923e+01       9.29720e-04       7.27437e+02
  2.800      2.72009e+02      -7.45942e+00      -1.61150e+01       9.20231e-04       7.18393e+02
  2.900      2.71419e+02      -7.35393e+00      -1.62613e+01       9.10740e-04       7.09442e+02
  3.000      2.70865e+02      -7.18742e+00      -1.64435e+01       9.01212e-04       7.00586e+02
  3.100      2.70354e+02      -6.96320e+00      -1.66717e+01       8.91622e-04       6.91823e+02
  3.200      2.69878e+02      -6.69906e+00      -1.69429e+01       8.82003e-04       6.83154e+02
  3.300      2.69423e+02      -6.41723e+00      -1.72505e+01       8.72400e-04       6.74579e+02
  3.400      2.68977e+02      -6.13995e+00      -1.75878e+01       8.62858e-04       6.66095e+02
  3.500      2.68526e+02      -5.88944e+00      -1.79483e+01       8.53420e-04       6.57704e+02
  3.600      2.68056e+02      -5.68794e+00      -1.83252e+01       8.44128e-04       6.49404e+02
  3.700      2.67557e+02      -5.54914e+00      -1.87101e+01       8.35010e-04       6.41195e+02
  3.800      2.67032e+02      -5.45921e+00      -1.90890e+01       8.26057e-04       6.33075e+02
  3.900      2.66485e+02      -5.39878e+00      -1.94468e+01       8.17250e-04       6.25042e+02
  4.000      2.65919e+02      -5.34848e+00      -1.97683e+01       8.08575e-04       6.17096e+02
  4.100      2.65340e+02      -5.28896e+00      -2.00383e+01       8.00016e-04       6.09233e+02
  4.200      2.64752e+02      -5.20085e+00      -2.02418e+01       7.91557e-04       6.01454e+02
  4.300      2.64157e+02      -5.06732e+00      -2.03662e+01       7.83183e-04       5.93756e+02
  4.400      2.63560e+02      -4.88981e+00      -2.04176e+01       7.74888e-04       5.86140e+02
  4.500      2.62963e+02      -4.67761e+00      -2.04103e+01       7.66664e-04       5.78604e+02
  4.600      2.62366e+02      -4.44005e+00      -2.03585e+01       7.58505e-04       5.71148e+02
  4.700      2.61773e+02      -4.18647e+00      -2.02765e+01       7.50405e-04       5.63772e+02
  4.800      2.61186e+02      -3.92621e+00      -2.01785e+01       7.42359e-04       5.56475e+02
  4.900      2.60606e+02      -3.66861e+00      -2.00788e+01       7.34361e-04       5.49257e+02
  5.000      2.60034e+02      -3.42144e+00      -1.99887e+01       7.26410e-04       5.42117e+02
  5.100      2.59468e+02      -3.18790e+00      -1.99108e+01       7.18511e-04       5.35056e+02
  5.200      2.58905e+02      -2.97036e+00      -1.98462e+01       7.10674e-04       5.28071e+02
  5.300      2.58341e+02      -2.77118e+00      -1.97960e+01       7.02908e-04       5.21164e+02
  5.400      2.57774e+02      -2.59274e+00      -1.97613e+01       6.95220e-04       5.14332e+02
  5.500      2.57201e+02      -2.43739e+00      -1.97430e+01       6.87618e-04       5.07576e+02
  5.600      2.56618e+02      -2.30750e+00      -1.97424e+01       6.80110e-04       5.00896e+02
  5.700      2.56022e+02      -2.20392e+00      -1.97596e+01       6.72701e-04       4.94289e+02
  5.800      2.55413e+02      -2.11843e+00      -1.97910e+01       6.65391e-04       4.87755e+02
  5.900      2.54792e+02      -2.03940e+00      -1.98309e+01       6.58174e-04       4.81292e+02
  6.000      2.54159e+02      -1.95522e+00      -1.98740e+01       6.51047e-04       4.74897e+02
  6.100      2.53514e+02      -1.85427e+00      -1.99148e+01       6.44005e-04       4.68568e+02
  6.200      2.52858e+02      -1.72491e+00      -1.99478e+01       6.37045e-04       4.62305e+02
  6.300      2.52191e+02      -1.55553e+00      -1.99675e+01       6.30163e-04       4.56105e+02
  6.400      2.51514e+02      -1.33451e+00      -1.99686e+01       6.23354e-04       4.49966e+02
  6.500      2.50827e+02      -1.05488e+00      -1.99470e+01       6.16618e-04       4.43887e+02
  6.600      2.50131e+02      -7.28033e-01      -1.99044e+01       6.09956e-04       4.37872e+02
  6.700      2.49424e+02      -3.69857e-01      -1.98442e+01       6.03371e-04       4.31922e+02
  6.800      2.48709e+02       3.75878e-03      -1.97694e+01       5.96867e-04       4.26040e+02
  6.900      2.47984e+02       3.76919e-01      -1.96833e+01       5.90446e-04       4.20229e+02
  7.000      2.47251e+02       7.33734e-01      -1.95890e+01       5.84112e-04       4.14491e+02
  7.100      2.46508e+02       1.05831e+00      -1.94898e+01       5.77867e-04       4.08828e+02
  7.200      2.45757e+02       1.33476e+00      -1.93888e+01       5.71714e-04       4.03242e+02
  7.300      2.44997e+02       1.54752e+00      -1.92893e+01       5.65654e-04       3.97735e+02
  7.400      2.44228e+02       1.69278e+00      -1.91937e+01       5.59685e-04       3.92302e+02
  7.500      2.43447e+02       1.78151e+00      -1.91039e+01       5.53796e-04       3.86934e+02
  7.600      2.42653e+02       1.82560e+00      -1.90215e+01       5.47975e-04       3.81617e+02
  7.700      2.41842e+02       1.83697e+00      -1.89485e+01       5.42214e-04       3.76344e+02
  7.800      2.41014e+02       1.82752e+00      -1.88864e+01       5.36501e-04       3.71104e+02
  7.900      2.40165e+02       1.80913e+00      -1.88370e+01       5.30829e-04       3.65887e+02
  8.000      2.39294e+02       1.79372e+00      -1.88020e+01       5.25188e-04       3.60686e+02
  8.100      2.38399e+02       1.79318e+00      -1.87833e+01       5.19569e-04       3.55491e+02
  8.200      2.37476e+02       1.81943e+00      -1.87825e+01       5.13966e-04       3.50297e+02
  8.300      2.36526e+02       1.88200e+00      -1.88002e+01       5.08374e-04       3.45100e+02
  8.400      2.35560e+02       1.97927e+00      -1.88309e+01       5.02803e-04       3.39923e+02
  8.500      2.34589e+02       2.10634e+00      -1.88676e+01       4.97269e-04       3.34796e+02
  8.600      2.33625e+02       2.25826e+00      -1.89031e+01       4.91784e-04       3.29743e+02
  8.700      2.32683e+02       2.43010e+00      -1.89304e+01       4.86361e-04       3.24792e+02
  8.800      2.31775e+02       2.61695e+00      -1.89422e+01       4.81011e-04       3.19965e+02
  8.900      2.30913e+02       2.81386e+00      -1.89316e+01       4.75744e-04       3.15285e+02
  9.000      2.30109e+02       3.01593e+00      -1.88914e+01       4.70571e-04       3.10772e+02
  9.100      2.29378e+02       3.21820e+00      -1.88145e+01       4.65500e-04       3.06445e+02
  9.200      2.28731e+02       3.41577e+00      -1.86938e+01       4.60539e-04       3.02324e+02
  9.300      2.28180e+02       3.60378e+00      -1.85222e+01       4.55695e-04       2.98425e+02
  9.400      2.27730e+02       3.78024e+00      -1.82974e+01       4.50968e-04       2.94746e+02
  9.500      2.27373e+02       3.94680e+00      -1.80225e+01       4.46343e-04       2.91266e+02
  9.600      2.27099e+02       4.10532e+00      -1.77011e+01       4.41809e-04       2.87960e+02
  9.700      2.26901e+02       4.25768e+00      -1.73369e+01       4.37354e-04       2.84807e+02
  9.800      2.26769e+02       4.40573e+00      -1.69333e+01       4.32966e-04       2.81786e+02
  9.900      2.26695e+02       4.55136e+00      -1.64941e+01       4.28634e-04       2.78876e+02
 10.000      2.26671e+02       4.69642e+00      -1.60228e+01       4.24350e-04       2.76059e+02
 10.100      2.26688e+02       4.84279e+00      -1.55230e+01       4.20102e-04       2.73316e+02
 10.200      2.26737e+02       4.99233e+00      -1.49983e+01       4.15881e-04       2.70629e+02
 10.300      2.26810e+02       5.14692e+00      -1.44522e+01       4.11680e-04       2.67981e+02
 10.400      2.26898e+02       5.30842e+00      -1.38884e+01       4.07489e-04       2.65356e+02
 10.500      2.26993e+02       5.47870e+00      -1.33104e+01       4.03299e-04       2.62737e+02
 10.600      2.27086e+02       5.65963e+00      -1.27219e+01       3.99104e-04       2.60110e+02
 10.700      2.27168e+02       5.85308e+00      -1.21264e+01       3.94896e-04       2.57461e+02
 10.800      2.27231e+02       6.06091e+00      -1.15276e+01       3.90667e-04       2.54774e+02
 10.900      2.27266e+02       6.28499e+00      -1.09290e+01       3.86411e-04       2.52038e+02
 11.000      2.27265e+02       6.52718e+00      -1.03342e+01       3.82121e-04       2.49239e+02
 11.100      2.27223e+02       6.78736e+00      -9.74604e+00       3.77792e-04       2.46369e+02
 11.200      2.27141e+02       7.06179e+00      -9.16630e+00       3.73423e-04       2.43432e+02
 11.300      2.27022e+02       7.34635e+00      -8.59645e+00       3.69010e-04       2.40430e+02
 11.400      2.26869e+02       7.63693e+00      -8.03803e+00       3.64552e-04       2.37365e+02
 11.500      2.26683e+02       7.92940e+00      -7.49255e+00       3.60049e-04       2.34241e+02
 11.600      2.26468e+02       8.21964e+00      -6.96154e+00       3.55497e-04       2.31060e+02
 11.700      2.26225e+02       8.50353e+00      -6.44654e+00       3.50898e-04       2.27826e+02
 11.800      2.25958e+02       8.77694e+00      -5.94905e+00       3.46249e-04       2.24542e+02
 11.900      2.25668e+02       9.03576e+00      -5.47062e+00       3.41550e-04       2.21211e+02
 12.000      2.25358e+02       9.27587e+00      -5.01276e+00       3.36801e-04       2.17835e+02
 12.100      2.25031e+02       9.49314e+00      -4.57701e+00       3.32001e-04       2.14419e+02
 12.200      2.24688e+02       9.68346e+00      -4.16488e+00       3.27151e-04       2.10965e+02
 12.300      2.24333e+02       9.84269e+00      -3.77791e+00       3.22251e-04       2.07477e+02
 12.400      2.23968e+02       9.96673e+00      -3.41761e+00       3.17302e-04       2.03957e+02
 12.500      2.23594e+02       1.00514e+01      -3.08552e+00       3.12303e-04       2.00410e+02
 12.600      2.23216e+02       1.00936e+01      -2.78274e+00       3.07259e-04       1.96839e+02
 12.700      2.22833e+02       1.00953e+01      -2.50800e+00       3.02183e-04       1.93255e+02
 12.800      2.22446e+02       1.00602e+01      -2.25918e+00       2.97092e-04       1.89670e+02
 12.900      2.22058e+02       9.99233e+00      -2.03419e+00       2.92002e-04       1.86095e+02
 13.000      2.21668e+02       9.89535e+00      -1.83090e+00       2.86930e-04       1.82541e+02
 13.100      2.21279e+02       9.77315e+00      -1.64721e+00       2.81888e-04       1.79019e+02
 13.200      2.20890e+02       9.62956e+00      -1.48100e+00       2.76892e-04       1.75536e+02
 13.300      2.20502e+02       9.46839e+00      -1.33018e+00       2.71953e-04       1.72103e+02
 13.400      2.20118e+02       9.29347e+00      -1.19262e+00       2.67082e-04       1.68726e+02
 13.500      2.19737e+02       9.10864e+00      -1.06621e+00       2.62292e-04       1.65413e+02
 13.600      2.19361e+02       8.91771e+00      -9.48851e-01       2.57591e-04       1.62170e+02
 13.700      2.18990e+02       8.72451e+00      -8.38427e-01       2.52989e-04       1.59004e+02
 13.800      2.18627e+02       8.53288e+00      -7.32828e-01       2.48495e-04       1.55920e+02
 13.900      2.18271e+02       8.34663e+00      -6.29945e-01       2.44115e-04       1.52923e+02
 14.000      2.17923e+02       8.16959e+00      -5.27665e-01       2.39858e-04       1.50017e+02
 14.100      2.17585e+02       8.00482e+00      -4.24262e-01       2.35727e-04       1.47205e+02
 14.200      2.17257e+02       7.85225e+00      -3.19567e-01       2.31719e-04       1.44483e+02
 14.300      2.16937e+02       7.71101e+00      -2.13806e-01       2.27827e-04       1.41847e+02
 14.400      2.16627e+02       7.58023e+00      -1.07206e-01       2.24046e-04       1.39294e+02
 14.500      2.16324e+02       7.45903e+00       6.53788e-06       2.20371e-04       1.36817e+02
 14.600      2.16029e+02       7.34657e+00       1.07605e-01       2.16796e-04       1.34414e+02
 14.700      2.15742e+02       7.24195e+00       2.15361e-01       2.13317e-04       1.32081e+02
 14.800      2.15462e+02       7.14432e+00       3.23050e-01       2.09928e-04       1.29815e+02
 14.900      2.15189e+02       7.05281e+00       4.30443e-01       2.06626e-04       1.27611e+02
 15.000      2.14922e+02       6.96654e+00       5.37315e-01       2.03407e-04       1.25467e+02
 15.100      2.14662e+02       6.88465e+00       6.43439e-01       2.00265e-04       1.23379e+02
 15.200      2.14407e+02       6.80627e+00       7.48586e-01       1.97198e-04       1.21346e+02
 15.300      2.14157e+02       6.73054e+00       8.52532e-01       1.94202e-04       1.19363e+02
 15.400      2.13913e+02       6.65657e+00       9.55048e-01       1.91273e-04       1.17428e+02
 15.500      2.13673e+02       6.58351e+00       1.05591e+00       1.88408e-04       1.15540e+02
 15.600      2.13438e+02       6.51049e+00       1.15489e+00       1.85603e-04       1.13694e+02
 15.700      2.13206e+02       6.43663e+00       1.25176e+00       1.82856e-04       1.11890e+02
 15.800      2.12978e+02       6.36106e+00       1.34629e+00       1.80164e-04       1.10125e+02
 15.900      2.12754e+02       6.28293e+00       1.43826e+00       1.77523e-04       1.08396e+02
 16.000      2.12532e+02       6.20136e+00       1.52744e+00       1.74932e-04       1.06703e+02
 16.100      2.12313e+02       6.11548e+00       1.61360e+00       1.72387e-04       1.05042e+02
 16.200      2.12096e+02       6.02442e+00       1.69652e+00       1.69886e-04       1.03412e+02
 16.300      2.11881e+02       5.92731e+00       1.77597e+00       1.67428e-04       1.01812e+02
 16.400      2.11667e+02       5.82329e+00       1.85172e+00       1.65008e-04       1.00240e+02
 16.500      2.11454e+02       5.71160e+00       1.92360e+00       1.62626e-04       9.86937e+01
 16.600      2.11243e+02       5.59213e+00       1.99169e+00       1.60280e-04       9.71727e+01
 16.700      2.11034e+02       5.46509e+00       2.05621e+00       1.57968e-04       9.56761e+01
 16.800      2.10828e+02       5.33064e+00       2.11737e+00       1.55688e-04       9.42029e+01
 16.900      2.10625e+02       5.18897e+00       2.17538e+00       1.53438e-04       9.27524e+01
 17.000      2.10427e+02       5.04026e+00       2.23044e+00       1.51217e-04       9.13238e+01
 17.100      2.10233e+02       4.88469e+00       2.28277e+00       1.49024e-04       8.99163e+01
 17.200      2.10044e+02       4.72244e+00       2.33258e+00       1.46857e-04       8.85293e+01
 17.300      2.09861e+02       4.55369e+00       2.38008e+00       1.44715e-04       8.71620e+01
 17.400      2.09685e+02       4.37862e+00       2.42548e+00       1.42596e-04       8.58138e+01
 17.500      2.09516e+02       4.19742e+00       2.46898e+00       1.40500e-04       8.44841e+01
 17.600      2.09355e+02       4.01026e+00       2.51080e+00       1.38425e-04       8.31722e+01
 17.700      2.09202e+02       3.81733e+00       2.55115e+00       1.36370e-04       8.18776e+01
 17.800      2.09058e+02       3.61880e+00       2.59023e+00       1.34334e-04       8.05998e+01
 17.900      2.08923e+02       3.41486e+00       2.62826e+00       1.32316e-04       7.93382e+01
 18.000      2.08799e+02       3.20568e+00       2.66545e+00       1.30316e-04       7.80922e+01
 18.100      2.08686e+02       2.99146e+00       2.70200e+00       1.28332e-04       7.68616e+01
 18.200      2.08584e+02       2.77236e+00       2.73813e+00       1.26363e-04       7.56457e+01
 18.300      2.08494e+02       2.54857e+00       2.77405e+00       1.24410e-04       7.44441e+01
 18.400      2.08418e+02       2.32028e+00       2.80996e+00       1.22470e-04       7.32565e+01
 18.500      2.08354e+02       2.08765e+00       2.84608e+00       1.20544e-04       7.20824e+01
 18.600      2.08304e+02       1.85088e+00       2.88261e+00       1.18631e-04       7.09215e+01
 18.700      2.08269e+02       1.61014e+00       2.91977e+00       1.16730e-04       6.97734e+01
 18.800      2.08249e+02       1.36569e+00       2.95760e+00       1.14842e-04       6.86380e+01
 18.900      2.08243e+02       1.11794e+00       2.99584e+00       1.12967e-04       6.75158e+01
 19.000      2.08250e+02       8.67314e-01       3.03415e+00       1.11109e-04       6.64072e+01
 19.100      2.08271e+02       6.14261e-01       3.07220e+00       1.09267e-04       6.53128e+01
 19.200      2.08304e+02       3.59208e-01       3.10966e+00       1.07443e-04       6.42329e+01
 19.300      2.08348e+02       1.02597e-01       3.14620e+00       1.05639e-04       6.31680e+01
 19.400      2.08404e+02      -1.55149e-01       3.18150e+00       1.03856e-04       6.21183e+01
 19.500      2.08469e+02      -4.13590e-01       3.21522e+00       1.02095e-04       6.10842e+01
 19.600      2.08545e+02      -6.72292e-01       3.24703e+00       1.00357e-04       6.00660e+01
 19.700      2.08629e+02      -9.30821e-01       3.27661e+00       9.86430e-05       5.90640e+01
 19.800      2.08721e+02      -1.18874e+00       3.30363e+00       9.69538e-05       5.80783e+01
 19.900      2.08822e+02      -1.44562e+00       3.32775e+00       9.52902e-05       5.71092e+01
 20.000      2.08929e+02      -1.70102e+00       3.34865e+00       9.36531e-05       5.61568e+01
 20.100      2.09042e+02      -1.95451e+00       3.36600e+00       9.20430e-05       5.52213e+01
 20.200      2.09161e+02      -2.20566e+00       3.37947e+00       9.04605e-05       5.43028e+01
 20.300      2.09285e+02      -2.45403e+00       3.38873e+00       8.89063e-05       5.34014e+01
