# Data Source: NASA GEOS5 Near-Real-Time
# Model Time = 2010-12-11 18:00:00
# Location = [  39.7393, -104.9900 ]
# Fields = [ Z(km), T(K), U(m/s), V(m/s), R(g/cm3), P(mbar) ]
# Ground Height = 1.589
  0.000      2.85306e+02       3.27048e+00      -6.97816e+00       1.24985e-03       1.02341e+03
  0.100      2.84643e+02       3.22726e+00      -7.00204e+00       1.23777e-03       1.01116e+03
  0.200      2.83990e+02       3.16188e+00      -6.98688e+00       1.22579e-03       9.99087e+02
  0.300      2.83337e+02       3.09834e+00      -6.97495e+00       1.21394e-03       9.87153e+02
  0.400      2.82671e+02       3.06059e+00      -7.00847e+00       1.20224e-03       9.75333e+02
  0.500      2.81989e+02       3.05919e+00      -7.10831e+00       1.19066e-03       9.63608e+02
  0.600      2.81330e+02       3.04624e+00      -7.20222e+00       1.17906e-03       9.51991e+02
  0.700      2.80731e+02       2.97188e+00      -7.21300e+00       1.16731e-03       9.40502e+02
  0.800      2.80131e+02       2.88068e+00      -7.20125e+00       1.15567e-03       9.29134e+02
  0.900      2.79438e+02       2.84872e+00      -7.27424e+00       1.14450e-03       9.17876e+02
  1.000      2.78677e+02       2.85118e+00      -7.40111e+00       1.13368e-03       9.06722e+02
  1.100      2.77950e+02       2.79408e+00      -7.45557e+00       1.12279e-03       8.95672e+02
  1.200      2.77298e+02       2.65966e+00      -7.38548e+00       1.11169e-03       8.84729e+02
  1.300      2.76671e+02       2.53294e+00      -7.23958e+00       1.10056e-03       8.73897e+02
  1.400      2.76021e+02       2.49052e+00      -7.09605e+00       1.08962e-03       8.63177e+02
  1.500      2.75320e+02       2.56314e+00      -7.09932e+00       1.07897e-03       8.52565e+02
  1.600      2.74549e+02       2.76649e+00      -7.38302e+00       1.06866e-03       8.42056e+02
  1.700      2.73742e+02       3.05938e+00      -7.88500e+00       1.05856e-03       8.31648e+02
  1.800      2.72958e+02       3.37258e+00      -8.44534e+00       1.04844e-03       8.21341e+02
  1.900      2.72219e+02       3.67133e+00      -8.96280e+00       1.03823e-03       8.11132e+02
  2.000      2.71486e+02       3.97143e+00      -9.42288e+00       1.02805e-03       8.01021e+02
  2.100      2.70724e+02       4.29107e+00      -9.81426e+00       1.01805e-03       7.91003e+02
  2.200      2.69933e+02       4.63969e+00      -1.01055e+01       1.00823e-03       7.81081e+02
  2.300      2.69121e+02       5.02377e+00      -1.02592e+01       9.98553e-04       7.71259e+02
  2.400      2.68294e+02       5.45068e+00      -1.02691e+01       9.89004e-04       7.61535e+02
  2.500      2.67450e+02       5.92897e+00      -1.01720e+01       9.79576e-04       7.51905e+02
  2.600      2.66590e+02       6.46748e+00      -1.00082e+01       9.70270e-04       7.42365e+02
  2.700      2.65707e+02       7.07658e+00      -9.82442e+00       9.61099e-04       7.32914e+02
  2.800      2.64796e+02       7.76725e+00      -9.66979e+00       9.52084e-04       7.23551e+02
  2.900      2.63859e+02       8.53438e+00      -9.57357e+00       9.43220e-04       7.14278e+02
  3.000      2.62916e+02       9.33209e+00      -9.51432e+00       9.34432e-04       7.05093e+02
  3.100      2.61988e+02       1.01093e+01      -9.46327e+00       9.25642e-04       6.95995e+02
  3.200      2.61082e+02       1.08517e+01      -9.40814e+00       9.16827e-04       6.86982e+02
  3.300      2.60186e+02       1.15875e+01      -9.35597e+00       9.08030e-04       6.78057e+02
  3.400      2.59290e+02       1.23444e+01      -9.31403e+00       8.99291e-04       6.69219e+02
  3.500      2.58396e+02       1.31146e+01      -9.27986e+00       8.90602e-04       6.60468e+02
  3.600      2.57515e+02       1.38664e+01      -9.24451e+00       8.81921e-04       6.51800e+02
  3.700      2.56657e+02       1.45720e+01      -9.20283e+00       8.73211e-04       6.43213e+02
  3.800      2.55821e+02       1.52374e+01      -9.17949e+00       8.64486e-04       6.34710e+02
  3.900      2.54997e+02       1.58836e+01      -9.21287e+00       8.55775e-04       6.26293e+02
  4.000      2.54182e+02       1.65305e+01      -9.34076e+00       8.47103e-04       6.17964e+02
  4.100      2.53382e+02       1.71889e+01      -9.59676e+00       8.38446e-04       6.09722e+02
  4.200      2.52608e+02       1.78658e+01      -1.00128e+01       8.29764e-04       6.01567e+02
  4.300      2.51873e+02       1.85661e+01      -1.06175e+01       8.21019e-04       5.93496e+02
  4.400      2.51184e+02       1.92774e+01      -1.14155e+01       8.12196e-04       5.85509e+02
  4.500      2.50543e+02       1.99794e+01      -1.24011e+01       8.03285e-04       5.77609e+02
  4.600      2.49957e+02       2.06527e+01      -1.35656e+01       7.94279e-04       5.69796e+02
  4.700      2.49423e+02       2.12824e+01      -1.48672e+01       7.85187e-04       5.62071e+02
  4.800      2.48939e+02       2.18569e+01      -1.62429e+01       7.76024e-04       5.54434e+02
  4.900      2.48501e+02       2.23655e+01      -1.76303e+01       7.66809e-04       5.46887e+02
  5.000      2.48104e+02       2.28223e+01      -1.89950e+01       7.57565e-04       5.39430e+02
  5.100      2.47737e+02       2.32724e+01      -2.03377e+01       7.48327e-04       5.32063e+02
  5.200      2.47390e+02       2.37631e+01      -2.16616e+01       7.39127e-04       5.24787e+02
  5.300      2.47055e+02       2.43335e+01      -2.29687e+01       7.29995e-04       5.17600e+02
  5.400      2.46723e+02       2.49931e+01      -2.42582e+01       7.20954e-04       5.10503e+02
  5.500      2.46387e+02       2.57445e+01      -2.55280e+01       7.12023e-04       5.03493e+02
  5.600      2.46042e+02       2.65898e+01      -2.67767e+01       7.03220e-04       4.96571e+02
  5.700      2.45689e+02       2.75173e+01      -2.80101e+01       6.94533e-04       4.89735e+02
  5.800      2.45343e+02       2.85011e+01      -2.92415e+01       6.85925e-04       4.82983e+02
  5.900      2.45018e+02       2.95147e+01      -3.04842e+01       6.77356e-04       4.76317e+02
  6.000      2.44725e+02       3.05315e+01      -3.17510e+01       6.68793e-04       4.69734e+02
  6.100      2.44465e+02       3.15235e+01      -3.30480e+01       6.60239e-04       4.63234e+02
  6.200      2.44235e+02       3.24620e+01      -3.43787e+01       6.51708e-04       4.56818e+02
  6.300      2.44030e+02       3.33183e+01      -3.57462e+01       6.43214e-04       4.50486e+02
  6.400      2.43845e+02       3.40674e+01      -3.71524e+01       6.34773e-04       4.44236e+02
  6.500      2.43668e+02       3.47034e+01      -3.85908e+01       6.26416e-04       4.38070e+02
  6.600      2.43487e+02       3.52262e+01      -4.00528e+01       6.18175e-04       4.31984e+02
  6.700      2.43288e+02       3.56358e+01      -4.15293e+01       6.10079e-04       4.25979e+02
  6.800      2.43060e+02       3.59337e+01      -4.30120e+01       6.02156e-04       4.20054e+02
  6.900      2.42797e+02       3.61303e+01      -4.44950e+01       5.94415e-04       4.14205e+02
  7.000      2.42495e+02       3.62398e+01      -4.59733e+01       5.86860e-04       4.08431e+02
  7.100      2.42149e+02       3.62767e+01      -4.74421e+01       5.79495e-04       4.02730e+02
  7.200      2.41755e+02       3.62552e+01      -4.88964e+01       5.72322e-04       3.97099e+02
  7.300      2.41315e+02       3.61945e+01      -5.03294e+01       5.65335e-04       3.91537e+02
  7.400      2.40832e+02       3.61176e+01      -5.17323e+01       5.58519e-04       3.86042e+02
  7.500      2.40310e+02       3.60480e+01      -5.30965e+01       5.51862e-04       3.80614e+02
  7.600      2.39754e+02       3.60092e+01      -5.44131e+01       5.45349e-04       3.75251e+02
  7.700      2.39168e+02       3.60191e+01      -5.56762e+01       5.38966e-04       3.69952e+02
  7.800      2.38558e+02       3.60718e+01      -5.68926e+01       5.32696e-04       3.64716e+02
  7.900      2.37932e+02       3.61539e+01      -5.80726e+01       5.26520e-04       3.59541e+02
  8.000      2.37296e+02       3.62523e+01      -5.92268e+01       5.20421e-04       3.54427e+02
  8.100      2.36657e+02       3.63539e+01      -6.03657e+01       5.14381e-04       3.49371e+02
  8.200      2.36020e+02       3.64529e+01      -6.14946e+01       5.08391e-04       3.44372e+02
  8.300      2.35381e+02       3.65642e+01      -6.26051e+01       5.02457e-04       3.39431e+02
  8.400      2.34734e+02       3.67062e+01      -6.36864e+01       4.96592e-04       3.34547e+02
  8.500      2.34075e+02       3.68973e+01      -6.47277e+01       4.90805e-04       3.29721e+02
  8.600      2.33400e+02       3.71559e+01      -6.57181e+01       4.85104e-04       3.24950e+02
  8.700      2.32703e+02       3.74942e+01      -6.66462e+01       4.79499e-04       3.20237e+02
  8.800      2.31985e+02       3.79000e+01      -6.74982e+01       4.73986e-04       3.15578e+02
  8.900      2.31245e+02       3.83554e+01      -6.82599e+01       4.68564e-04       3.10974e+02
  9.000      2.30485e+02       3.88423e+01      -6.89170e+01       4.63229e-04       3.06422e+02
  9.100      2.29705e+02       3.93427e+01      -6.94551e+01       4.57978e-04       3.01923e+02
  9.200      2.28904e+02       3.98381e+01      -6.98623e+01       4.52807e-04       2.97474e+02
  9.300      2.28085e+02       4.02995e+01      -7.01644e+01       4.47713e-04       2.93075e+02
  9.400      2.27250e+02       4.06891e+01      -7.04187e+01       4.42690e-04       2.88725e+02
  9.500      2.26401e+02       4.09691e+01      -7.06837e+01       4.37731e-04       2.84424e+02
  9.600      2.25540e+02       4.11014e+01      -7.10179e+01       4.32831e-04       2.80171e+02
  9.700      2.24670e+02       4.10482e+01      -7.14795e+01       4.27985e-04       2.75965e+02
  9.800      2.23792e+02       4.07767e+01      -7.21194e+01       4.23187e-04       2.71806e+02
  9.900      2.22914e+02       4.02964e+01      -7.29257e+01       4.18427e-04       2.67694e+02
 10.000      2.22040e+02       3.96374e+01      -7.38560e+01       4.13693e-04       2.63628e+02
 10.100      2.21178e+02       3.88300e+01      -7.48677e+01       4.08974e-04       2.59609e+02
 10.200      2.20334e+02       3.79044e+01      -7.59181e+01       4.04259e-04       2.55637e+02
 10.300      2.19514e+02       3.68910e+01      -7.69645e+01       3.99538e-04       2.51711e+02
 10.400      2.18726e+02       3.58200e+01      -7.79632e+01       3.94799e-04       2.47832e+02
 10.500      2.17973e+02       3.47225e+01      -7.88486e+01       3.90036e-04       2.44000e+02
 10.600      2.17259e+02       3.36301e+01      -7.95367e+01       3.85248e-04       2.40215e+02
 10.700      2.16585e+02       3.25744e+01      -7.99430e+01       3.80431e-04       2.36476e+02
 10.800      2.15956e+02       3.15871e+01      -7.99828e+01       3.75583e-04       2.32784e+02
 10.900      2.15374e+02       3.06998e+01      -7.95717e+01       3.70701e-04       2.29139e+02
 11.000      2.14842e+02       2.99441e+01      -7.86250e+01       3.65785e-04       2.25541e+02
 11.100      2.14362e+02       2.93477e+01      -7.70758e+01       3.60831e-04       2.21990e+02
 11.200      2.13941e+02       2.89139e+01      -7.49700e+01       3.55836e-04       2.18487e+02
 11.300      2.13585e+02       2.86362e+01      -7.23970e+01       3.50794e-04       2.15033e+02
 11.400      2.13300e+02       2.85080e+01      -6.94468e+01       3.45702e-04       2.11629e+02
 11.500      2.13094e+02       2.85228e+01      -6.62089e+01       3.40555e-04       2.08277e+02
 11.600      2.12973e+02       2.86741e+01      -6.27731e+01       3.35350e-04       2.04977e+02
 11.700      2.12942e+02       2.89555e+01      -5.92292e+01       3.30085e-04       2.01730e+02
 11.800      2.13009e+02       2.93603e+01      -5.56662e+01       3.24758e-04       1.98536e+02
 11.900      2.13168e+02       2.98778e+01      -5.21515e+01       3.19385e-04       1.95397e+02
 12.000      2.13399e+02       3.04929e+01      -4.87290e+01       3.13999e-04       1.92310e+02
 12.100      2.13683e+02       3.11904e+01      -4.54410e+01       3.08633e-04       1.89275e+02
 12.200      2.14000e+02       3.19549e+01      -4.23302e+01       3.03316e-04       1.86291e+02
 12.300      2.14331e+02       3.27711e+01      -3.94389e+01       2.98078e-04       1.83357e+02
 12.400      2.14656e+02       3.36236e+01      -3.68098e+01       2.92943e-04       1.80471e+02
 12.500      2.14955e+02       3.44972e+01      -3.44853e+01       2.87937e-04       1.77634e+02
 12.600      2.15209e+02       3.53765e+01      -3.25080e+01       2.83080e-04       1.74844e+02
 12.700      2.15402e+02       3.62445e+01      -3.09031e+01       2.78387e-04       1.72100e+02
 12.800      2.15539e+02       3.70780e+01      -2.96384e+01       2.73848e-04       1.69402e+02
 12.900      2.15625e+02       3.78526e+01      -2.86693e+01       2.69450e-04       1.66747e+02
 13.000      2.15667e+02       3.85440e+01      -2.79511e+01       2.65179e-04       1.64137e+02
 13.100      2.15672e+02       3.91278e+01      -2.74392e+01       2.61024e-04       1.61568e+02
 13.200      2.15645e+02       3.95796e+01      -2.70892e+01       2.56974e-04       1.59042e+02
 13.300      2.15594e+02       3.98750e+01      -2.68564e+01       2.53017e-04       1.56556e+02
 13.400      2.15526e+02       3.99898e+01      -2.66962e+01       2.49143e-04       1.54109e+02
 13.500      2.15445e+02       3.98994e+01      -2.65641e+01       2.45343e-04       1.51702e+02
 13.600      2.15360e+02       3.95798e+01      -2.64156e+01       2.41607e-04       1.49334e+02
 13.700      2.15275e+02       3.90269e+01      -2.62225e+01       2.37930e-04       1.47002e+02
 13.800      2.15189e+02       3.82724e+01      -2.59853e+01       2.34308e-04       1.44707e+02
 13.900      2.15104e+02       3.73518e+01      -2.57074e+01       2.30740e-04       1.42447e+02
 14.000      2.15018e+02       3.63002e+01      -2.53923e+01       2.27223e-04       1.40220e+02
 14.100      2.14934e+02       3.51531e+01      -2.50434e+01       2.23756e-04       1.38026e+02
 14.200      2.14850e+02       3.39459e+01      -2.46641e+01       2.20336e-04       1.35864e+02
 14.300      2.14768e+02       3.27140e+01      -2.42578e+01       2.16963e-04       1.33733e+02
 14.400      2.14686e+02       3.14926e+01      -2.38281e+01       2.13635e-04       1.31631e+02
 14.500      2.14606e+02       3.03171e+01      -2.33783e+01       2.10349e-04       1.29558e+02
 14.600      2.14527e+02       2.92230e+01      -2.29118e+01       2.07104e-04       1.27513e+02
 14.700      2.14451e+02       2.82455e+01      -2.24322e+01       2.03900e-04       1.25495e+02
 14.800      2.14375e+02       2.74165e+01      -2.19426e+01       2.00734e-04       1.23503e+02
 14.900      2.14302e+02       2.67370e+01      -2.14449e+01       1.97609e-04       1.21539e+02
 15.000      2.14231e+02       2.61922e+01      -2.09401e+01       1.94524e-04       1.19602e+02
 15.100      2.14162e+02       2.57672e+01      -2.04292e+01       1.91481e-04       1.17693e+02
 15.200      2.14095e+02       2.54473e+01      -1.99134e+01       1.88482e-04       1.15813e+02
 15.300      2.14031e+02       2.52174e+01      -1.93936e+01       1.85527e-04       1.13964e+02
 15.400      2.13968e+02       2.50629e+01      -1.88710e+01       1.82619e-04       1.12144e+02
 15.500      2.13908e+02       2.49687e+01      -1.83466e+01       1.79757e-04       1.10356e+02
 15.600      2.13850e+02       2.49201e+01      -1.78213e+01       1.76943e-04       1.08598e+02
 15.700      2.13794e+02       2.49022e+01      -1.72964e+01       1.74177e-04       1.06873e+02
 15.800      2.13740e+02       2.49000e+01      -1.67727e+01       1.71460e-04       1.05180e+02
 15.900      2.13689e+02       2.48989e+01      -1.62515e+01       1.68793e-04       1.03519e+02
 16.000      2.13640e+02       2.48838e+01      -1.57336e+01       1.66177e-04       1.01891e+02
 16.100      2.13594e+02       2.48399e+01      -1.52203e+01       1.63611e-04       1.00296e+02
 16.200      2.13550e+02       2.47539e+01      -1.47124e+01       1.61095e-04       9.87335e+01
 16.300      2.13509e+02       2.46234e+01      -1.42107e+01       1.58629e-04       9.72033e+01
 16.400      2.13470e+02       2.44509e+01      -1.37155e+01       1.56210e-04       9.57034e+01
 16.500      2.13434e+02       2.42386e+01      -1.32275e+01       1.53835e-04       9.42325e+01
 16.600      2.13399e+02       2.39889e+01      -1.27471e+01       1.51503e-04       9.27892e+01
 16.700      2.13368e+02       2.37044e+01      -1.22748e+01       1.49212e-04       9.13723e+01
 16.800      2.13338e+02       2.33872e+01      -1.18111e+01       1.46960e-04       8.99804e+01
 16.900      2.13311e+02       2.30399e+01      -1.13566e+01       1.44744e-04       8.86123e+01
 17.000      2.13285e+02       2.26648e+01      -1.09116e+01       1.42563e-04       8.72670e+01
 17.100      2.13262e+02       2.22643e+01      -1.04767e+01       1.40416e-04       8.59433e+01
 17.200      2.13242e+02       2.18408e+01      -1.00524e+01       1.38300e-04       8.46401e+01
 17.300      2.13223e+02       2.13967e+01      -9.63918e+00       1.36215e-04       8.33566e+01
 17.400      2.13206e+02       2.09343e+01      -9.23755e+00       1.34158e-04       8.20917e+01
 17.500      2.13191e+02       2.04560e+01      -8.84799e+00       1.32129e-04       8.08445e+01
 17.600      2.13178e+02       1.99643e+01      -8.47100e+00       1.30126e-04       7.96142e+01
 17.700      2.13167e+02       1.94616e+01      -8.10708e+00       1.28148e-04       7.84000e+01
 17.800      2.13158e+02       1.89501e+01      -7.75673e+00       1.26194e-04       7.72011e+01
 17.900      2.13151e+02       1.84323e+01      -7.42044e+00       1.24262e-04       7.60166e+01
 18.000      2.13146e+02       1.79106e+01      -7.09870e+00       1.22352e-04       7.48461e+01
 18.100      2.13142e+02       1.73874e+01      -6.79201e+00       1.20462e-04       7.36886e+01
 18.200      2.13140e+02       1.68650e+01      -6.50086e+00       1.18591e-04       7.25438e+01
 18.300      2.13140e+02       1.63459e+01      -6.22577e+00       1.16739e-04       7.14108e+01
 18.400      2.13141e+02       1.58324e+01      -5.96721e+00       1.14905e-04       7.02893e+01
 18.500      2.13144e+02       1.53268e+01      -5.72557e+00       1.13088e-04       6.91786e+01
 18.600      2.13149e+02       1.48303e+01      -5.50029e+00       1.11288e-04       6.80791e+01
 18.700      2.13155e+02       1.43434e+01      -5.29025e+00       1.09507e-04       6.69914e+01
 18.800      2.13163e+02       1.38668e+01      -5.09437e+00       1.07745e-04       6.59159e+01
 18.900      2.13173e+02       1.34011e+01      -4.91153e+00       1.06003e-04       6.48532e+01
 19.000      2.13184e+02       1.29468e+01      -4.74066e+00       1.04282e-04       6.38038e+01
 19.100      2.13197e+02       1.25046e+01      -4.58064e+00       1.02583e-04       6.27681e+01
 19.200      2.13212e+02       1.20751e+01      -4.43038e+00       1.00906e-04       6.17465e+01
 19.300      2.13229e+02       1.16587e+01      -4.28878e+00       9.92526e-05       6.07393e+01
 19.400      2.13248e+02       1.12562e+01      -4.15474e+00       9.76224e-05       5.97469e+01
 19.500      2.13268e+02       1.08682e+01      -4.02716e+00       9.60162e-05       5.87695e+01
 19.600      2.13291e+02       1.04951e+01      -3.90495e+00       9.44346e-05       5.78076e+01
 19.700      2.13315e+02       1.01377e+01      -3.78701e+00       9.28779e-05       5.68612e+01
 19.800      2.13342e+02       9.79648e+00      -3.67223e+00       9.13466e-05       5.59306e+01
 19.900      2.13370e+02       9.47208e+00      -3.55952e+00       8.98408e-05       5.50160e+01
 20.000      2.13401e+02       9.16509e+00      -3.44778e+00       8.83610e-05       5.41176e+01
 20.100      2.13433e+02       8.87609e+00      -3.33591e+00       8.69073e-05       5.32354e+01
 20.200      2.13468e+02       8.60569e+00      -3.22282e+00       8.54800e-05       5.23697e+01
 20.300      2.13505e+02       8.35448e+00      -3.10740e+00       8.40793e-05       5.15205e+01
