# Data Source: NASA GEOS5 Near-Real-Time
# Model Time = 2010-08-20 18:00:00
# Location = [  39.7393, -104.9900 ]
# Fields = [ Z(km), T(K), U(m/s), V(m/s), R(g/cm3), P(mbar) ]
# Ground Height = 1.589
  0.000      3.08486e+02      -3.49840e-01      -1.07385e+00       1.14246e-03       1.01148e+03
  0.100      3.07893e+02      -3.76107e-01      -1.10343e+00       1.13130e-03       9.99676e+02
  0.200      3.07299e+02      -4.02169e-01      -1.13259e+00       1.12026e-03       9.88010e+02
  0.300      3.06679e+02      -4.20637e-01      -1.14620e+00       1.10943e-03       9.76487e+02
  0.400      3.06013e+02      -4.25717e-01      -1.13318e+00       1.09889e-03       9.65110e+02
  0.500      3.05324e+02      -4.21099e-01      -1.10651e+00       1.08855e-03       9.53878e+02
  0.600      3.04649e+02      -4.13179e-01      -1.08735e+00       1.07828e-03       9.42788e+02
  0.700      3.03995e+02      -3.98866e-01      -1.08849e+00       1.06805e-03       9.31839e+02
  0.800      3.03353e+02      -3.68940e-01      -1.11685e+00       1.05789e-03       9.21028e+02
  0.900      3.02712e+02      -3.25652e-01      -1.16482e+00       1.04785e-03       9.10354e+02
  1.000      3.02060e+02      -2.87595e-01      -1.20445e+00       1.03796e-03       8.99815e+02
  1.100      3.01393e+02      -2.69349e-01      -1.21352e+00       1.02822e-03       8.89409e+02
  1.200      3.00741e+02      -2.65595e-01      -1.19727e+00       1.01854e-03       8.79133e+02
  1.300      3.00141e+02      -2.66506e-01      -1.16799e+00       1.00880e-03       8.68986e+02
  1.400      2.99569e+02      -2.65496e-01      -1.14594e+00       9.99077e-04       8.58970e+02
  1.500      2.98963e+02      -2.58513e-01      -1.15764e+00       9.89585e-04       8.49087e+02
  1.600      2.98276e+02      -2.43220e-01      -1.21910e+00       9.80475e-04       8.39336e+02
  1.700      2.97522e+02      -2.22281e-01      -1.31415e+00       9.71675e-04       8.29702e+02
  1.800      2.96728e+02      -1.99351e-01      -1.42082e+00       9.63080e-04       8.20167e+02
  1.900      2.95907e+02      -1.79229e-01      -1.52365e+00       9.54630e-04       8.10722e+02
  2.000      2.95064e+02      -1.67829e-01      -1.61358e+00       9.46312e-04       8.01368e+02
  2.100      2.94202e+02      -1.69380e-01      -1.68318e+00       9.38111e-04       7.92104e+02
  2.200      2.93329e+02      -1.77301e-01      -1.73353e+00       9.30008e-04       7.82931e+02
  2.300      2.92450e+02      -1.80842e-01      -1.76897e+00       9.21980e-04       7.73846e+02
  2.400      2.91570e+02      -1.72280e-01      -1.79399e+00       9.14011e-04       7.64849e+02
  2.500      2.90687e+02      -1.52202e-01      -1.81337e+00       9.06106e-04       7.55939e+02
  2.600      2.89799e+02      -1.22573e-01      -1.83194e+00       8.98272e-04       7.47114e+02
  2.700      2.88901e+02      -8.31278e-02      -1.85327e+00       8.90521e-04       7.38371e+02
  2.800      2.87985e+02      -3.00954e-02      -1.87905e+00       8.82873e-04       7.29708e+02
  2.900      2.87043e+02       4.04284e-02      -1.91062e+00       8.75348e-04       7.21123e+02
  3.000      2.86082e+02       1.27264e-01      -1.94577e+00       8.67925e-04       7.12614e+02
  3.100      2.85123e+02       2.23482e-01      -1.97820e+00       8.60537e-04       7.04179e+02
  3.200      2.84187e+02       3.21979e-01      -2.00193e+00       8.53119e-04       6.95818e+02
  3.300      2.83280e+02       4.18751e-01      -2.02309e+00       8.45660e-04       6.87532e+02
  3.400      2.82388e+02       5.12887e-01      -2.05990e+00       8.38199e-04       6.79321e+02
  3.500      2.81498e+02       6.03703e-01      -2.13071e+00       8.30778e-04       6.71185e+02
  3.600      2.80603e+02       6.93060e-01      -2.24360e+00       8.23415e-04       6.63122e+02
  3.700      2.79704e+02       7.85568e-01      -2.39554e+00       8.16107e-04       6.55131e+02
  3.800      2.78800e+02       8.85970e-01      -2.58290e+00       8.08851e-04       6.47207e+02
  3.900      2.77899e+02       9.98675e-01      -2.79963e+00       8.01622e-04       6.39351e+02
  4.000      2.77020e+02       1.12760e+00      -3.03609e+00       7.94374e-04       6.31565e+02
  4.100      2.76182e+02       1.27662e+00      -3.28238e+00       7.87055e-04       6.23852e+02
  4.200      2.75396e+02       1.44724e+00      -3.52781e+00       7.79636e-04       6.16214e+02
  4.300      2.74657e+02       1.63480e+00      -3.75966e+00       7.72137e-04       6.08650e+02
  4.400      2.73955e+02       1.83370e+00      -3.96493e+00       7.64585e-04       6.01157e+02
  4.500      2.73284e+02       2.03904e+00      -4.13290e+00       7.57000e-04       5.93733e+02
  4.600      2.72647e+02       2.25067e+00      -4.26774e+00       7.49370e-04       5.86381e+02
  4.700      2.72058e+02       2.47027e+00      -4.37947e+00       7.41672e-04       5.79102e+02
  4.800      2.71526e+02       2.69954e+00      -4.47807e+00       7.33881e-04       5.71898e+02
  4.900      2.71055e+02       2.94017e+00      -4.57181e+00       7.25995e-04       5.64772e+02
  5.000      2.70639e+02       3.19390e+00      -4.66690e+00       7.18035e-04       5.57723e+02
  5.100      2.70272e+02       3.46245e+00      -4.76944e+00       7.10021e-04       5.50750e+02
  5.200      2.69946e+02       3.74768e+00      -4.88273e+00       7.01978e-04       5.43855e+02
  5.300      2.69646e+02       4.05225e+00      -4.99452e+00       6.93949e-04       5.37036e+02
  5.400      2.69353e+02       4.37909e+00      -5.08722e+00       6.85981e-04       5.30293e+02
  5.500      2.69049e+02       4.73108e+00      -5.14328e+00       6.78121e-04       5.23624e+02
  5.600      2.68718e+02       5.10625e+00      -5.15295e+00       6.70405e-04       5.17029e+02
  5.700      2.68350e+02       5.49193e+00      -5.12367e+00       6.62854e-04       5.10507e+02
  5.800      2.67938e+02       5.87404e+00      -5.06511e+00       6.55486e-04       5.04058e+02
  5.900      2.67473e+02       6.23861e+00      -4.98695e+00       6.48318e-04       4.97680e+02
  6.000      2.66955e+02       6.57717e+00      -4.89915e+00       6.41344e-04       4.91373e+02
  6.100      2.66396e+02       6.88907e+00      -4.81202e+00       6.34531e-04       4.85135e+02
  6.200      2.65809e+02       7.17429e+00      -4.73591e+00       6.27843e-04       4.78964e+02
  6.300      2.65207e+02       7.43284e+00      -4.68110e+00       6.21246e-04       4.72858e+02
  6.400      2.64599e+02       7.66838e+00      -4.65424e+00       6.14717e-04       4.66816e+02
  6.500      2.63990e+02       7.88989e+00      -4.65665e+00       6.08244e-04       4.60836e+02
  6.600      2.63383e+02       8.10681e+00      -4.68919e+00       6.01818e-04       4.54920e+02
  6.700      2.62782e+02       8.32855e+00      -4.75274e+00       5.95430e-04       4.49065e+02
  6.800      2.62189e+02       8.56102e+00      -4.84676e+00       5.89079e-04       4.43272e+02
  6.900      2.61598e+02       8.80138e+00      -4.96715e+00       5.82777e-04       4.37541e+02
  7.000      2.61002e+02       9.04544e+00      -5.10929e+00       5.76540e-04       4.31872e+02
  7.100      2.60393e+02       9.28902e+00      -5.26854e+00       5.70384e-04       4.26264e+02
  7.200      2.59765e+02       9.52850e+00      -5.44039e+00       5.64322e-04       4.20717e+02
  7.300      2.59115e+02       9.76475e+00      -5.62140e+00       5.58359e-04       4.15230e+02
  7.400      2.58440e+02       1.00008e+01      -5.80861e+00       5.52499e-04       4.09802e+02
  7.500      2.57737e+02       1.02398e+01      -5.99907e+00       5.46744e-04       4.04430e+02
  7.600      2.57004e+02       1.04847e+01      -6.18984e+00       5.41095e-04       3.99113e+02
  7.700      2.56240e+02       1.07376e+01      -6.37657e+00       5.35553e-04       3.93850e+02
  7.800      2.55448e+02       1.09983e+01      -6.55153e+00       5.30107e-04       3.88640e+02
  7.900      2.54634e+02       1.12661e+01      -6.70644e+00       5.24747e-04       3.83484e+02
  8.000      2.53800e+02       1.15403e+01      -6.83307e+00       5.19462e-04       3.78380e+02
  8.100      2.52953e+02       1.18205e+01      -6.92317e+00       5.14244e-04       3.73328e+02
  8.200      2.52097e+02       1.21075e+01      -6.97030e+00       5.09080e-04       3.68328e+02
  8.300      2.51240e+02       1.24048e+01      -6.97070e+00       5.03952e-04       3.63379e+02
  8.400      2.50392e+02       1.27162e+01      -6.92088e+00       4.98843e-04       3.58481e+02
  8.500      2.49559e+02       1.30452e+01      -6.81734e+00       4.93738e-04       3.53632e+02
  8.600      2.48751e+02       1.33955e+01      -6.65661e+00       4.88620e-04       3.48833e+02
  8.700      2.47972e+02       1.37678e+01      -6.43965e+00       4.83481e-04       3.44083e+02
  8.800      2.47221e+02       1.41564e+01      -6.17613e+00       4.78325e-04       3.39382e+02
  8.900      2.46496e+02       1.45553e+01      -5.87678e+00       4.73157e-04       3.34732e+02
  9.000      2.45795e+02       1.49582e+01      -5.55230e+00       4.67985e-04       3.30132e+02
  9.100      2.45117e+02       1.53590e+01      -5.21340e+00       4.62812e-04       3.25583e+02
  9.200      2.44460e+02       1.57511e+01      -4.87042e+00       4.57646e-04       3.21085e+02
  9.300      2.43822e+02       1.61261e+01      -4.53148e+00       4.52489e-04       3.16638e+02
  9.400      2.43203e+02       1.64749e+01      -4.20391e+00       4.47343e-04       3.12242e+02
  9.500      2.42601e+02       1.67885e+01      -3.89502e+00       4.42212e-04       3.07896e+02
  9.600      2.42016e+02       1.70577e+01      -3.61213e+00       4.37097e-04       3.03601e+02
  9.700      2.41446e+02       1.72736e+01      -3.36255e+00       4.32001e-04       2.99356e+02
  9.800      2.40891e+02       1.74316e+01      -3.15110e+00       4.26929e-04       2.95160e+02
  9.900      2.40344e+02       1.75387e+01      -2.97623e+00       4.21889e-04       2.91014e+02
 10.000      2.39801e+02       1.76038e+01      -2.83541e+00       4.16891e-04       2.86916e+02
 10.100      2.39256e+02       1.76358e+01      -2.72608e+00       4.11943e-04       2.82868e+02
 10.200      2.38705e+02       1.76436e+01      -2.64570e+00       4.07056e-04       2.78867e+02
 10.300      2.38141e+02       1.76360e+01      -2.59172e+00       4.02236e-04       2.74914e+02
 10.400      2.37561e+02       1.76223e+01      -2.56148e+00       3.97491e-04       2.71009e+02
 10.500      2.36964e+02       1.76125e+01      -2.55181e+00       3.92817e-04       2.67150e+02
 10.600      2.36353e+02       1.76171e+01      -2.55947e+00       3.88212e-04       2.63336e+02
 10.700      2.35728e+02       1.76465e+01      -2.58119e+00       3.83671e-04       2.59568e+02
 10.800      2.35091e+02       1.77111e+01      -2.61370e+00       3.79191e-04       2.55844e+02
 10.900      2.34443e+02       1.78213e+01      -2.65375e+00       3.74768e-04       2.52163e+02
 11.000      2.33785e+02       1.79872e+01      -2.69808e+00       3.70400e-04       2.48525e+02
 11.100      2.33120e+02       1.82085e+01      -2.74381e+00       3.66082e-04       2.44929e+02
 11.200      2.32450e+02       1.84715e+01      -2.78849e+00       3.61810e-04       2.41375e+02
 11.300      2.31777e+02       1.87616e+01      -2.82974e+00       3.57580e-04       2.37862e+02
 11.400      2.31105e+02       1.90643e+01      -2.86513e+00       3.53386e-04       2.34391e+02
 11.500      2.30436e+02       1.93649e+01      -2.89229e+00       3.49225e-04       2.30960e+02
 11.600      2.29773e+02       1.96490e+01      -2.90879e+00       3.45092e-04       2.27571e+02
 11.700      2.29119e+02       1.99019e+01      -2.91225e+00       3.40985e-04       2.24222e+02
 11.800      2.28474e+02       2.01133e+01      -2.90159e+00       3.36901e-04       2.20913e+02
 11.900      2.27836e+02       2.02809e+01      -2.87841e+00       3.32846e-04       2.17644e+02
 12.000      2.27200e+02       2.04036e+01      -2.84461e+00       3.28823e-04       2.14414e+02
 12.100      2.26564e+02       2.04802e+01      -2.80211e+00       3.24839e-04       2.11223e+02
 12.200      2.25924e+02       2.05097e+01      -2.75283e+00       3.20898e-04       2.08071e+02
 12.300      2.25277e+02       2.04909e+01      -2.69869e+00       3.17005e-04       2.04958e+02
 12.400      2.24618e+02       2.04226e+01      -2.64160e+00       3.13163e-04       2.01882e+02
 12.500      2.23945e+02       2.03037e+01      -2.58345e+00       3.09377e-04       1.98844e+02
 12.600      2.23257e+02       2.01372e+01      -2.52484e+00       3.05647e-04       1.95843e+02
 12.700      2.22557e+02       1.99310e+01      -2.46460e+00       3.01967e-04       1.92878e+02
 12.800      2.21850e+02       1.96934e+01      -2.40145e+00       2.98330e-04       1.89950e+02
 12.900      2.21138e+02       1.94331e+01      -2.33410e+00       2.94732e-04       1.87057e+02
 13.000      2.20426e+02       1.91582e+01      -2.26126e+00       2.91167e-04       1.84199e+02
 13.100      2.19717e+02       1.88774e+01      -2.18164e+00       2.87629e-04       1.81375e+02
 13.200      2.19015e+02       1.85989e+01      -2.09396e+00       2.84113e-04       1.78585e+02
 13.300      2.18323e+02       1.83312e+01      -1.99694e+00       2.80614e-04       1.75829e+02
 13.400      2.17645e+02       1.80819e+01      -1.88956e+00       2.77128e-04       1.73106e+02
 13.500      2.16982e+02       1.78497e+01      -1.77386e+00       2.73655e-04       1.70416e+02
 13.600      2.16331e+02       1.76282e+01      -1.65362e+00       2.70200e-04       1.67759e+02
 13.700      2.15691e+02       1.74108e+01      -1.53269e+00       2.66764e-04       1.65136e+02
 13.800      2.15061e+02       1.71909e+01      -1.41489e+00       2.63351e-04       1.62547e+02
 13.900      2.14438e+02       1.69621e+01      -1.30406e+00       2.59964e-04       1.59992e+02
 14.000      2.13821e+02       1.67178e+01      -1.20402e+00       2.56606e-04       1.57471e+02
 14.100      2.13209e+02       1.64514e+01      -1.11861e+00       2.53279e-04       1.54984e+02
 14.200      2.12600e+02       1.61565e+01      -1.05165e+00       2.49987e-04       1.52533e+02
 14.300      2.11992e+02       1.58264e+01      -1.00699e+00       2.46731e-04       1.50115e+02
 14.400      2.11384e+02       1.54564e+01      -9.87287e-01       2.43513e-04       1.47733e+02
 14.500      2.10780e+02       1.50506e+01      -9.89918e-01       2.40327e-04       1.45383e+02
 14.600      2.10184e+02       1.46154e+01      -1.01071e+00       2.37167e-04       1.43066e+02
 14.700      2.09600e+02       1.41571e+01      -1.04548e+00       2.34027e-04       1.40779e+02
 14.800      2.09032e+02       1.36823e+01      -1.09007e+00       2.30899e-04       1.38521e+02
 14.900      2.08484e+02       1.31974e+01      -1.14029e+00       2.27779e-04       1.36292e+02
 15.000      2.07962e+02       1.27088e+01      -1.19199e+00       2.24661e-04       1.34089e+02
 15.100      2.07468e+02       1.22229e+01      -1.24098e+00       2.21539e-04       1.31912e+02
 15.200      2.07008e+02       1.17462e+01      -1.28310e+00       2.18409e-04       1.29760e+02
 15.300      2.06586e+02       1.12851e+01      -1.31416e+00       2.15267e-04       1.27632e+02
 15.400      2.06205e+02       1.08460e+01      -1.33001e+00       2.12107e-04       1.25526e+02
 15.500      2.05870e+02       1.04348e+01      -1.32685e+00       2.08926e-04       1.23443e+02
 15.600      2.05580e+02       1.00515e+01      -1.30437e+00       2.05730e-04       1.21384e+02
 15.700      2.05333e+02       9.69300e+00      -1.26403e+00       2.02526e-04       1.19349e+02
 15.800      2.05126e+02       9.35649e+00      -1.20729e+00       1.99321e-04       1.17343e+02
 15.900      2.04957e+02       9.03897e+00      -1.13565e+00       1.96124e-04       1.15365e+02
 16.000      2.04824e+02       8.73744e+00      -1.05056e+00       1.92940e-04       1.13419e+02
 16.100      2.04724e+02       8.44896e+00      -9.53513e-01       1.89777e-04       1.11505e+02
 16.200      2.04654e+02       8.17056e+00      -8.45978e-01       1.86641e-04       1.09625e+02
 16.300      2.04612e+02       7.89926e+00      -7.29434e-01       1.83537e-04       1.07780e+02
 16.400      2.04596e+02       7.63209e+00      -6.05351e-01       1.80472e-04       1.05971e+02
 16.500      2.04604e+02       7.36610e+00      -4.75208e-01       1.77449e-04       1.04200e+02
 16.600      2.04632e+02       7.09830e+00      -3.40480e-01       1.74474e-04       1.02467e+02
 16.700      2.04678e+02       6.82574e+00      -2.02642e-01       1.71551e-04       1.00773e+02
 16.800      2.04740e+02       6.54555e+00      -6.31451e-02       1.68684e-04       9.91195e+01
 16.900      2.04817e+02       6.25683e+00       7.71151e-02       1.65874e-04       9.75047e+01
 17.000      2.04908e+02       5.96050e+00       2.17732e-01       1.63117e-04       9.59271e+01
 17.100      2.05013e+02       5.65755e+00       3.58322e-01       1.60413e-04       9.43848e+01
 17.200      2.05131e+02       5.34895e+00       4.98498e-01       1.57758e-04       9.28761e+01
 17.300      2.05263e+02       5.03571e+00       6.37874e-01       1.55150e-04       9.13993e+01
 17.400      2.05407e+02       4.71877e+00       7.76070e-01       1.52587e-04       8.99526e+01
 17.500      2.05563e+02       4.39915e+00       9.12697e-01       1.50067e-04       8.85347e+01
 17.600      2.05732e+02       4.07781e+00       1.04737e+00       1.47589e-04       8.71439e+01
 17.700      2.05912e+02       3.75574e+00       1.17971e+00       1.45150e-04       8.57789e+01
 17.800      2.06103e+02       3.43392e+00       1.30932e+00       1.42749e-04       8.44384e+01
 17.900      2.06306e+02       3.11334e+00       1.43582e+00       1.40384e-04       8.31209e+01
 18.000      2.06519e+02       2.79497e+00       1.55883e+00       1.38053e-04       8.18255e+01
 18.100      2.06743e+02       2.47979e+00       1.67797e+00       1.35756e-04       8.05508e+01
 18.200      2.06976e+02       2.16880e+00       1.79283e+00       1.33490e-04       7.92958e+01
 18.300      2.07219e+02       1.86298e+00       1.90305e+00       1.31254e-04       7.80593e+01
 18.400      2.07471e+02       1.56329e+00       2.00824e+00       1.29048e-04       7.68405e+01
 18.500      2.07732e+02       1.27073e+00       2.10801e+00       1.26869e-04       7.56383e+01
 18.600      2.08002e+02       9.86280e-01       2.20197e+00       1.24717e-04       7.44519e+01
 18.700      2.08279e+02       7.10921e-01       2.28974e+00       1.22591e-04       7.32803e+01
 18.800      2.08565e+02       4.45640e-01       2.37094e+00       1.20490e-04       7.21228e+01
 18.900      2.08858e+02       1.91409e-01       2.44519e+00       1.18412e-04       7.09786e+01
 19.000      2.09158e+02      -5.07839e-02       2.51208e+00       1.16357e-04       6.98470e+01
 19.100      2.09464e+02      -2.80461e-01       2.57139e+00       1.14325e-04       6.87275e+01
 19.200      2.09776e+02      -4.98486e-01       2.62325e+00       1.12316e-04       6.76207e+01
 19.300      2.10093e+02      -7.05943e-01       2.66785e+00       1.10333e-04       6.65270e+01
 19.400      2.10412e+02      -9.03927e-01       2.70540e+00       1.08377e-04       6.54468e+01
 19.500      2.10734e+02      -1.09352e+00       2.73608e+00       1.06448e-04       6.43807e+01
 19.600      2.11057e+02      -1.27581e+00       2.76011e+00       1.04549e-04       6.33291e+01
 19.700      2.11380e+02      -1.45189e+00       2.77766e+00       1.02680e-04       6.22922e+01
 19.800      2.11702e+02      -1.62283e+00       2.78895e+00       1.00843e-04       6.12706e+01
 19.900      2.12022e+02      -1.78974e+00       2.79417e+00       9.90371e-05       6.02643e+01
 20.000      2.12338e+02      -1.95369e+00       2.79352e+00       9.72642e-05       5.92738e+01
 20.100      2.12650e+02      -2.11578e+00       2.78719e+00       9.55248e-05       5.82992e+01
 20.200      2.12956e+02      -2.27709e+00       2.77539e+00       9.38194e-05       5.73409e+01
 20.300      2.13255e+02      -2.43870e+00       2.75830e+00       9.21486e-05       5.63989e+01
