# Data Source: NASA MERRA (version 2)
# Model Time = 2011-09-28 18:00:00
# Location = [  39.1026,  -84.5123 ]
# Fields = [ Z(km), T(K), U(m/s), V(m/s), R(g/cm3), P(mbar) ]
# Ground Height = 0.165
  0.000      2.92593e+02       2.41264e+00       1.40106e+00       1.20282e-03       1.01006e+03
  0.100      2.91949e+02       2.34195e+00       1.32745e+00       1.19144e-03       9.98301e+02
  0.200      2.91289e+02       2.29781e+00       1.28632e+00       1.18024e-03       9.86680e+02
  0.300      2.90507e+02       2.46289e+00       1.50113e+00       1.16963e-03       9.75185e+02
  0.400      2.89543e+02       2.94795e+00       2.10860e+00       1.15983e-03       9.63803e+02
  0.500      2.88525e+02       3.56174e+00       2.88099e+00       1.15030e-03       9.52525e+02
  0.600      2.87613e+02       4.06168e+00       3.52928e+00       1.14040e-03       9.41344e+02
  0.700      2.86794e+02       4.42894e+00       4.03931e+00       1.13019e-03       9.30259e+02
  0.800      2.85974e+02       4.75036e+00       4.52621e+00       1.12005e-03       9.19276e+02
  0.900      2.85117e+02       5.07382e+00       5.04726e+00       1.11012e-03       9.08395e+02
  1.000      2.84244e+02       5.40981e+00       5.60421e+00       1.10031e-03       8.97612e+02
  1.100      2.83372e+02       5.76197e+00       6.18571e+00       1.09056e-03       8.86926e+02
  1.200      2.82508e+02       6.12269e+00       6.75743e+00       1.08083e-03       8.76335e+02
  1.300      2.81656e+02       6.48295e+00       7.28210e+00       1.07111e-03       8.65838e+02
  1.400      2.80824e+02       6.83371e+00       7.72249e+00       1.06138e-03       8.55436e+02
  1.500      2.80014e+02       7.16624e+00       8.04252e+00       1.05162e-03       8.45126e+02
  1.600      2.79234e+02       7.47934e+00       8.23679e+00       1.04181e-03       8.34910e+02
  1.700      2.78490e+02       7.77989e+00       8.33274e+00       1.03193e-03       8.24789e+02
  1.800      2.77789e+02       8.07518e+00       8.35939e+00       1.02196e-03       8.14764e+02
  1.900      2.77138e+02       8.37247e+00       8.34578e+00       1.01188e-03       8.04838e+02
  2.000      2.76542e+02       8.67893e+00       8.32028e+00       1.00168e-03       7.95010e+02
  2.100      2.75994e+02       8.99888e+00       8.29644e+00       9.91391e-04       7.85282e+02
  2.200      2.75470e+02       9.33390e+00       8.27333e+00       9.81096e-04       7.75654e+02
  2.300      2.74949e+02       9.68546e+00       8.24944e+00       9.70880e-04       7.66124e+02
  2.400      2.74406e+02       1.00550e+01       8.22324e+00       9.60823e-04       7.56693e+02
  2.500      2.73820e+02       1.04440e+01       8.19320e+00       9.51004e-04       7.47360e+02
  2.600      2.73180e+02       1.08494e+01       8.15813e+00       9.41452e-04       7.38124e+02
  2.700      2.72498e+02       1.12606e+01       8.11735e+00       9.32119e-04       7.28982e+02
  2.800      2.71789e+02       1.16661e+01       8.07026e+00       9.22950e-04       7.19932e+02
  2.900      2.71066e+02       1.20545e+01       8.01625e+00       9.13891e-04       7.10970e+02
  3.000      2.70344e+02       1.24142e+01       7.95472e+00       9.04891e-04       7.02095e+02
  3.100      2.69638e+02       1.27350e+01       7.88542e+00       8.95904e-04       6.93304e+02
  3.200      2.68951e+02       1.30174e+01       7.81127e+00       8.86911e-04       6.84598e+02
  3.300      2.68287e+02       1.32672e+01       7.73674e+00       8.77911e-04       6.75978e+02
  3.400      2.67648e+02       1.34901e+01       7.66630e+00       8.68901e-04       6.67445e+02
  3.500      2.67034e+02       1.36918e+01       7.60442e+00       8.59879e-04       6.59001e+02
  3.600      2.66449e+02       1.38782e+01       7.55560e+00       8.50842e-04       6.50647e+02
  3.700      2.65893e+02       1.40549e+01       7.52441e+00       8.41792e-04       6.42384e+02
  3.800      2.65363e+02       1.42270e+01       7.51599e+00       8.32742e-04       6.34210e+02
  3.900      2.64854e+02       1.43994e+01       7.53565e+00       8.23708e-04       6.26126e+02
  4.000      2.64360e+02       1.45770e+01       7.58869e+00       8.14708e-04       6.18128e+02
  4.100      2.63876e+02       1.47648e+01       7.68043e+00       8.05755e-04       6.10217e+02
  4.200      2.63397e+02       1.49676e+01       7.81617e+00       7.96867e-04       6.02391e+02
  4.300      2.62919e+02       1.51900e+01       8.00051e+00       7.88056e-04       5.94650e+02
  4.400      2.62438e+02       1.54333e+01       8.23059e+00       7.79332e-04       5.86991e+02
  4.500      2.61954e+02       1.56968e+01       8.49903e+00       7.70698e-04       5.79416e+02
  4.600      2.61463e+02       1.59798e+01       8.79841e+00       7.62159e-04       5.71923e+02
  4.700      2.60966e+02       1.62815e+01       9.12129e+00       7.53718e-04       5.64513e+02
  4.800      2.60459e+02       1.66012e+01       9.46023e+00       7.45380e-04       5.57185e+02
  4.900      2.59943e+02       1.69382e+01       9.80780e+00       7.37149e-04       5.49939e+02
  5.000      2.59414e+02       1.72913e+01       1.01555e+01       7.29027e-04       5.42774e+02
  5.100      2.58873e+02       1.76578e+01       1.04910e+01       7.21014e-04       5.35689e+02
  5.200      2.58318e+02       1.80347e+01       1.08006e+01       7.13112e-04       5.28682e+02
  5.300      2.57749e+02       1.84189e+01       1.10709e+01       7.05319e-04       5.21753e+02
  5.400      2.57165e+02       1.88074e+01       1.12885e+01       6.97636e-04       5.14900e+02
  5.500      2.56565e+02       1.91969e+01       1.14399e+01       6.90063e-04       5.08122e+02
  5.600      2.55948e+02       1.95846e+01       1.15116e+01       6.82599e-04       5.01417e+02
  5.700      2.55314e+02       1.99682e+01       1.14925e+01       6.75244e-04       4.94785e+02
  5.800      2.54663e+02       2.03525e+01       1.13894e+01       6.67991e-04       4.88224e+02
  5.900      2.53999e+02       2.07455e+01       1.12178e+01       6.60833e-04       4.81733e+02
  6.000      2.53324e+02       2.11551e+01       1.09929e+01       6.53759e-04       4.75309e+02
  6.100      2.52640e+02       2.15894e+01       1.07301e+01       6.46763e-04       4.68953e+02
  6.200      2.51949e+02       2.20563e+01       1.04447e+01       6.39836e-04       4.62661e+02
  6.300      2.51253e+02       2.25638e+01       1.01521e+01       6.32970e-04       4.56433e+02
  6.400      2.50556e+02       2.31200e+01       9.86762e+00       6.26159e-04       4.50268e+02
  6.500      2.49858e+02       2.37295e+01       9.60467e+00       6.19398e-04       4.44165e+02
  6.600      2.49156e+02       2.43821e+01       9.36781e+00       6.12696e-04       4.38126e+02
  6.700      2.48448e+02       2.50631e+01       9.15906e+00       6.06066e-04       4.32152e+02
  6.800      2.47727e+02       2.57580e+01       8.98047e+00       5.99521e-04       4.26246e+02
  6.900      2.46992e+02       2.64522e+01       8.83405e+00       5.93072e-04       4.20410e+02
  7.000      2.46238e+02       2.71312e+01       8.72185e+00       5.86732e-04       4.14645e+02
  7.100      2.45461e+02       2.77804e+01       8.64589e+00       5.80510e-04       4.08953e+02
  7.200      2.44656e+02       2.83851e+01       8.60821e+00       5.74419e-04       4.03336e+02
  7.300      2.43821e+02       2.89311e+01       8.61083e+00       5.68467e-04       3.97794e+02
  7.400      2.42958e+02       2.94133e+01       8.65508e+00       5.62643e-04       3.92324e+02
  7.500      2.42077e+02       2.98388e+01       8.74149e+00       5.56908e-04       3.86918e+02
  7.600      2.41189e+02       3.02155e+01       8.87048e+00       5.51224e-04       3.81564e+02
  7.700      2.40306e+02       3.05512e+01       9.04250e+00       5.45551e-04       3.76254e+02
  7.800      2.39438e+02       3.08538e+01       9.25799e+00       5.39854e-04       3.70980e+02
  7.900      2.38596e+02       3.11311e+01       9.51739e+00       5.34097e-04       3.65734e+02
  8.000      2.37792e+02       3.13911e+01       9.82115e+00       5.28245e-04       3.60508e+02
  8.100      2.37037e+02       3.16416e+01       1.01697e+01       5.22266e-04       3.55296e+02
  8.200      2.36342e+02       3.18905e+01       1.05635e+01       5.16127e-04       3.50089e+02
  8.300      2.35715e+02       3.21432e+01       1.10008e+01       5.09814e-04       3.44889e+02
  8.400      2.35153e+02       3.23948e+01       1.14713e+01       5.03367e-04       3.39718e+02
  8.500      2.34654e+02       3.26379e+01       1.19621e+01       4.96843e-04       3.34602e+02
  8.600      2.34210e+02       3.28650e+01       1.24604e+01       4.90295e-04       3.29568e+02
  8.700      2.33817e+02       3.30684e+01       1.29534e+01       4.83774e-04       3.24639e+02
  8.800      2.33471e+02       3.32407e+01       1.34284e+01       4.77327e-04       3.19839e+02
  8.900      2.33166e+02       3.33744e+01       1.38725e+01       4.71001e-04       3.15188e+02
  9.000      2.32898e+02       3.34619e+01       1.42729e+01       4.64839e-04       3.10707e+02
  9.100      2.32661e+02       3.34957e+01       1.46169e+01       4.58883e-04       3.06414e+02
  9.200      2.32451e+02       3.34683e+01       1.48916e+01       4.53171e-04       3.02326e+02
  9.300      2.32262e+02       3.33723e+01       1.50846e+01       4.47741e-04       2.98460e+02
  9.400      2.32091e+02       3.32054e+01       1.51922e+01       4.42598e-04       2.94816e+02
  9.500      2.31936e+02       3.29720e+01       1.52228e+01       4.37716e-04       2.91369e+02
  9.600      2.31795e+02       3.26768e+01       1.51851e+01       4.33064e-04       2.88096e+02
  9.700      2.31665e+02       3.23247e+01       1.50883e+01       4.28615e-04       2.84978e+02
  9.800      2.31546e+02       3.19203e+01       1.49411e+01       4.24343e-04       2.81991e+02
  9.900      2.31433e+02       3.14685e+01       1.47526e+01       4.20221e-04       2.79116e+02
 10.000      2.31327e+02       3.09740e+01       1.45316e+01       4.16225e-04       2.76335e+02
 10.100      2.31223e+02       3.04415e+01       1.42871e+01       4.12332e-04       2.73628e+02
 10.200      2.31122e+02       2.98759e+01       1.40281e+01       4.08519e-04       2.70979e+02
 10.300      2.31020e+02       2.92820e+01       1.37633e+01       4.04764e-04       2.68369e+02
 10.400      2.30915e+02       2.86644e+01       1.35019e+01       4.01046e-04       2.65783e+02
 10.500      2.30806e+02       2.80279e+01       1.32527e+01       3.97344e-04       2.63206e+02
 10.600      2.30690e+02       2.73774e+01       1.30246e+01       3.93639e-04       2.60620e+02
 10.700      2.30565e+02       2.67175e+01       1.28266e+01       3.89912e-04       2.58014e+02
 10.800      2.30430e+02       2.60531e+01       1.26677e+01       3.86146e-04       2.55371e+02
 10.900      2.30282e+02       2.53889e+01       1.25566e+01       3.82321e-04       2.52679e+02
 11.000      2.30119e+02       2.47296e+01       1.25025e+01       3.78423e-04       2.49926e+02
 11.100      2.29940e+02       2.40796e+01       1.25109e+01       3.74438e-04       2.47102e+02
 11.200      2.29744e+02       2.34409e+01       1.25760e+01       3.70367e-04       2.44208e+02
 11.300      2.29532e+02       2.28153e+01       1.26890e+01       3.66214e-04       2.41246e+02
 11.400      2.29304e+02       2.22045e+01       1.28412e+01       3.61980e-04       2.38220e+02
 11.500      2.29060e+02       2.16101e+01       1.30238e+01       3.57670e-04       2.35134e+02
 11.600      2.28801e+02       2.10340e+01       1.32282e+01       3.53288e-04       2.31989e+02
 11.700      2.28526e+02       2.04777e+01       1.34455e+01       3.48835e-04       2.28790e+02
 11.800      2.28236e+02       1.99430e+01       1.36672e+01       3.44317e-04       2.25540e+02
 11.900      2.27931e+02       1.94315e+01       1.38845e+01       3.39736e-04       2.22242e+02
 12.000      2.27611e+02       1.89451e+01       1.40886e+01       3.35097e-04       2.18900e+02
 12.100      2.27277e+02       1.84854e+01       1.42709e+01       3.30402e-04       2.15516e+02
 12.200      2.26928e+02       1.80540e+01       1.44225e+01       3.25655e-04       2.12094e+02
 12.300      2.26566e+02       1.76528e+01       1.45349e+01       3.20861e-04       2.08638e+02
 12.400      2.26189e+02       1.72833e+01       1.45993e+01       3.16023e-04       2.05150e+02
 12.500      2.25799e+02       1.69473e+01       1.46069e+01       3.11144e-04       2.01635e+02
 12.600      2.25396e+02       1.66464e+01       1.45495e+01       3.06228e-04       1.98095e+02
 12.700      2.24981e+02       1.63790e+01       1.44260e+01       3.01286e-04       1.94539e+02
 12.800      2.24556e+02       1.61406e+01       1.42422e+01       2.96332e-04       1.90979e+02
 12.900      2.24124e+02       1.59267e+01       1.40042e+01       2.91379e-04       1.87425e+02
 13.000      2.23687e+02       1.57329e+01       1.37179e+01       2.86440e-04       1.83889e+02
 13.100      2.23247e+02       1.55545e+01       1.33893e+01       2.81528e-04       1.80380e+02
 13.200      2.22807e+02       1.53872e+01       1.30244e+01       2.76653e-04       1.76908e+02
 13.300      2.22370e+02       1.52263e+01       1.26293e+01       2.71828e-04       1.73481e+02
 13.400      2.21937e+02       1.50674e+01       1.22098e+01       2.67061e-04       1.70107e+02
 13.500      2.21511e+02       1.49060e+01       1.17721e+01       2.62361e-04       1.66793e+02
 13.600      2.21094e+02       1.47374e+01       1.13221e+01       2.57738e-04       1.63545e+02
 13.700      2.20689e+02       1.45573e+01       1.08657e+01       2.53199e-04       1.60371e+02
 13.800      2.20298e+02       1.43611e+01       1.04091e+01       2.48751e-04       1.57274e+02
 13.900      2.19923e+02       1.41443e+01       9.95815e+00       2.44401e-04       1.54261e+02
 14.000      2.19567e+02       1.39024e+01       9.51890e+00       2.40155e-04       1.51336e+02
 14.100      2.19233e+02       1.36310e+01       9.09717e+00       2.36019e-04       1.48502e+02
 14.200      2.18919e+02       1.33292e+01       8.69543e+00       2.31991e-04       1.45760e+02
 14.300      2.18627e+02       1.29990e+01       8.31306e+00       2.28069e-04       1.43104e+02
 14.400      2.18353e+02       1.26430e+01       7.94933e+00       2.24248e-04       1.40530e+02
 14.500      2.18098e+02       1.22631e+01       7.60351e+00       2.20524e-04       1.38035e+02
 14.600      2.17860e+02       1.18618e+01       7.27486e+00       2.16893e-04       1.35614e+02
 14.700      2.17639e+02       1.14414e+01       6.96264e+00       2.13351e-04       1.33264e+02
 14.800      2.17432e+02       1.10040e+01       6.66614e+00       2.09896e-04       1.30981e+02
 14.900      2.17239e+02       1.05520e+01       6.38461e+00       2.06523e-04       1.28762e+02
 15.000      2.17059e+02       1.00876e+01       6.11732e+00       2.03230e-04       1.26604e+02
 15.100      2.16891e+02       9.61313e+00       5.86354e+00       2.00013e-04       1.24504e+02
 15.200      2.16733e+02       9.13083e+00       5.62253e+00       1.96870e-04       1.22458e+02
 15.300      2.16585e+02       8.64296e+00       5.39357e+00       1.93798e-04       1.20465e+02
 15.400      2.16445e+02       8.15182e+00       5.17593e+00       1.90794e-04       1.18521e+02
 15.500      2.16313e+02       7.65967e+00       4.96885e+00       1.87855e-04       1.16624e+02
 15.600      2.16186e+02       7.16877e+00       4.77163e+00       1.84979e-04       1.14771e+02
 15.700      2.16065e+02       6.68141e+00       4.58352e+00       1.82164e-04       1.12961e+02
 15.800      2.15947e+02       6.19984e+00       4.40379e+00       1.79407e-04       1.11191e+02
 15.900      2.15833e+02       5.72636e+00       4.23170e+00       1.76707e-04       1.09459e+02
 16.000      2.15720e+02       5.26321e+00       4.06653e+00       1.74060e-04       1.07763e+02
 16.100      2.15607e+02       4.81269e+00       3.90755e+00       1.71466e-04       1.06102e+02
 16.200      2.15495e+02       4.37705e+00       3.75401e+00       1.68921e-04       1.04473e+02
 16.300      2.15380e+02       3.95858e+00       3.60519e+00       1.66425e-04       1.02874e+02
 16.400      2.15263e+02       3.55954e+00       3.46035e+00       1.63976e-04       1.01305e+02
 16.500      2.15143e+02       3.18219e+00       3.31877e+00       1.61571e-04       9.97634e+01
 16.600      2.15017e+02       2.82804e+00       3.17992e+00       1.59209e-04       9.82477e+01
 16.700      2.14888e+02       2.49656e+00       3.04383e+00       1.56888e-04       9.67572e+01
 16.800      2.14754e+02       2.18696e+00       2.91061e+00       1.54606e-04       9.52909e+01
 16.900      2.14618e+02       1.89840e+00       2.78038e+00       1.52362e-04       9.38478e+01
 17.000      2.14479e+02       1.63008e+00       2.65324e+00       1.50153e-04       9.24273e+01
 17.100      2.14337e+02       1.38117e+00       2.52931e+00       1.47978e-04       9.10283e+01
 17.200      2.14193e+02       1.15088e+00       2.40869e+00       1.45836e-04       8.96502e+01
 17.300      2.14048e+02       9.38374e-01       2.29150e+00       1.43724e-04       8.82922e+01
 17.400      2.13902e+02       7.42839e-01       2.17786e+00       1.41642e-04       8.69536e+01
 17.500      2.13755e+02       5.63463e-01       2.06786e+00       1.39587e-04       8.56337e+01
 17.600      2.13608e+02       3.99431e-01       1.96163e+00       1.37559e-04       8.43317e+01
 17.700      2.13462e+02       2.49925e-01       1.85927e+00       1.35557e-04       8.30472e+01
 17.800      2.13317e+02       1.14134e-01       1.76090e+00       1.33579e-04       8.17795e+01
 17.900      2.13172e+02      -8.76260e-03       1.66662e+00       1.31624e-04       8.05280e+01
 18.000      2.13030e+02      -1.19578e-01       1.57655e+00       1.29690e-04       7.92921e+01
 18.100      2.12889e+02      -2.19128e-01       1.49080e+00       1.27778e-04       7.80714e+01
 18.200      2.12752e+02      -3.08228e-01       1.40948e+00       1.25885e-04       7.68653e+01
 18.300      2.12617e+02      -3.87692e-01       1.33270e+00       1.24012e-04       7.56734e+01
 18.400      2.12486e+02      -4.58338e-01       1.26058e+00       1.22156e-04       7.44951e+01
 18.500      2.12359e+02      -5.20980e-01       1.19322e+00       1.20318e-04       7.33301e+01
 18.600      2.12237e+02      -5.76434e-01       1.13073e+00       1.18496e-04       7.21780e+01
 18.700      2.12119e+02      -6.25514e-01       1.07324e+00       1.16689e-04       7.10383e+01
 18.800      2.12007e+02      -6.69037e-01       1.02084e+00       1.14898e-04       6.99108e+01
 18.900      2.11901e+02      -7.07771e-01       9.73539e-01       1.13121e-04       6.87951e+01
 19.000      2.11801e+02      -7.42334e-01       9.30997e-01       1.11359e-04       6.76917e+01
 19.100      2.11707e+02      -7.73316e-01       8.92800e-01       1.09614e-04       6.66011e+01
 19.200      2.11619e+02      -8.01306e-01       8.58534e-01       1.07885e-04       6.55237e+01
 19.300      2.11538e+02      -8.26893e-01       8.27789e-01       1.06174e-04       6.44600e+01
 19.400      2.11464e+02      -8.50668e-01       8.00152e-01       1.04482e-04       6.34101e+01
 19.500      2.11396e+02      -8.73220e-01       7.75211e-01       1.02808e-04       6.23746e+01
 19.600      2.11336e+02      -8.95137e-01       7.52554e-01       1.01155e-04       6.13537e+01
 19.700      2.11283e+02      -9.17009e-01       7.31769e-01       9.95209e-05       6.03477e+01
 19.800      2.11237e+02      -9.39426e-01       7.12444e-01       9.79080e-05       5.93568e+01
 19.900      2.11199e+02      -9.62977e-01       6.94168e-01       9.63162e-05       5.83813e+01
 20.000      2.11169e+02      -9.88252e-01       6.76527e-01       9.47460e-05       5.74214e+01
 20.100      2.11147e+02      -1.01584e+00       6.59111e-01       9.31978e-05       5.64772e+01
 20.200      2.11133e+02      -1.04633e+00       6.41506e-01       9.16718e-05       5.55488e+01
 20.300      2.11128e+02      -1.08031e+00       6.23302e-01       9.01686e-05       5.46365e+01
