# Data Source: NASA MERRA (version 2)
# Model Time = 2011-05-11 18:00:00
# Location = [  39.1026,  -84.5123 ]
# Fields = [ Z(km), T(K), U(m/s), V(m/s), R(g/cm3), P(mbar) ]
# Ground Height = 0.165
  0.000      3.03111e+02      -1.60876e-01       1.53414e+00       1.16312e-03       1.01183e+03
  0.100      3.02449e+02      -1.57888e-01       1.51396e+00       1.15245e-03       1.00036e+03
  0.200      3.01789e+02      -1.53915e-01       1.49119e+00       1.14187e-03       9.89011e+02
  0.300      3.01047e+02      -1.80409e-01       1.54804e+00       1.13174e-03       9.77827e+02
  0.400      3.00152e+02      -2.61179e-01       1.75303e+00       1.12235e-03       9.66831e+02
  0.500      2.99129e+02      -3.52260e-01       2.05365e+00       1.11355e-03       9.55985e+02
  0.600      2.98054e+02      -3.75555e-01       2.33613e+00       1.10499e-03       9.45225e+02
  0.700      2.96961e+02      -2.91852e-01       2.54734e+00       1.09650e-03       9.34523e+02
  0.800      2.95827e+02      -1.07261e-01       2.70489e+00       1.08818e-03       9.23894e+02
  0.900      2.94664e+02       1.55051e-01       2.82416e+00       1.08001e-03       9.13348e+02
  1.000      2.93583e+02       4.29283e-01       2.90243e+00       1.07157e-03       9.02887e+02
  1.100      2.92704e+02       6.49338e-01       2.93223e+00       1.06243e-03       8.92507e+02
  1.200      2.92051e+02       8.20510e-01       2.89217e+00       1.05253e-03       8.82214e+02
  1.300      2.91593e+02       9.87700e-01       2.75309e+00       1.04199e-03       8.72013e+02
  1.400      2.91299e+02       1.19623e+00       2.48576e+00       1.03096e-03       8.61911e+02
  1.500      2.91137e+02       1.49143e+00       2.06098e+00       1.01957e-03       8.51915e+02
  1.600      2.91075e+02       1.91188e+00       1.45657e+00       1.00795e-03       8.42029e+02
  1.700      2.91064e+02       2.44744e+00       7.01518e-01       9.96288e-04       8.32252e+02
  1.800      2.91049e+02       3.06661e+00      -1.52779e-01       9.84763e-04       8.22583e+02
  1.900      2.90975e+02       3.73777e+00      -1.05481e+00       9.73559e-04       8.13017e+02
  2.000      2.90787e+02       4.42931e+00      -1.95307e+00       9.62846e-04       8.03552e+02
  2.100      2.90434e+02       5.11014e+00      -2.79795e+00       9.52779e-04       7.94185e+02
  2.200      2.89915e+02       5.75635e+00      -3.56597e+00       9.43343e-04       7.84913e+02
  2.300      2.89263e+02       6.34923e+00      -4.25259e+00       9.34410e-04       7.75732e+02
  2.400      2.88514e+02       6.87018e+00      -4.85372e+00       9.25852e-04       7.66639e+02
  2.500      2.87705e+02       7.30063e+00      -5.36527e+00       9.17545e-04       7.57629e+02
  2.600      2.86870e+02       7.62201e+00      -5.78315e+00       9.09371e-04       7.48699e+02
  2.700      2.86035e+02       7.82514e+00      -6.10698e+00       9.01240e-04       7.39848e+02
  2.800      2.85208e+02       7.92534e+00      -6.34606e+00       8.93137e-04       7.31074e+02
  2.900      2.84388e+02       7.94182e+00      -6.51123e+00       8.85058e-04       7.22378e+02
  3.000      2.83578e+02       7.89380e+00      -6.61333e+00       8.76999e-04       7.13761e+02
  3.100      2.82778e+02       7.80049e+00      -6.66320e+00       8.68957e-04       7.05223e+02
  3.200      2.81992e+02       7.68097e+00      -6.67163e+00       8.60929e-04       6.96764e+02
  3.300      2.81216e+02       7.54735e+00      -6.64754e+00       8.52921e-04       6.88384e+02
  3.400      2.80445e+02       7.40237e+00      -6.59732e+00       8.44952e-04       6.80082e+02
  3.500      2.79671e+02       7.24810e+00      -6.52715e+00       8.37043e-04       6.71857e+02
  3.600      2.78888e+02       7.08660e+00      -6.44324e+00       8.29213e-04       6.63709e+02
  3.700      2.78089e+02       6.91994e+00      -6.35177e+00       8.21481e-04       6.55636e+02
  3.800      2.77267e+02       6.75018e+00      -6.25892e+00       8.13865e-04       6.47638e+02
  3.900      2.76421e+02       6.58033e+00      -6.16846e+00       8.06369e-04       6.39715e+02
  4.000      2.75556e+02       6.41498e+00      -6.08007e+00       7.98974e-04       6.31865e+02
  4.100      2.74679e+02       6.25886e+00      -5.99303e+00       7.91660e-04       6.24088e+02
  4.200      2.73797e+02       6.11673e+00      -5.90662e+00       7.84406e-04       6.16383e+02
  4.300      2.72916e+02       5.99331e+00      -5.82012e+00       7.77192e-04       6.08750e+02
  4.400      2.72043e+02       5.89336e+00      -5.73281e+00       7.69999e-04       6.01186e+02
  4.500      2.71184e+02       5.82157e+00      -5.64462e+00       7.62809e-04       5.93693e+02
  4.600      2.70341e+02       5.78236e+00      -5.55976e+00       7.55621e-04       5.86270e+02
  4.700      2.69512e+02       5.78003e+00      -5.48411e+00       7.48437e-04       5.78917e+02
  4.800      2.68698e+02       5.81890e+00      -5.42356e+00       7.41260e-04       5.71633e+02
  4.900      2.67899e+02       5.90326e+00      -5.38403e+00       7.34093e-04       5.64421e+02
  5.000      2.67112e+02       6.03744e+00      -5.37139e+00       7.26937e-04       5.57279e+02
  5.100      2.66339e+02       6.22572e+00      -5.39154e+00       7.19797e-04       5.50208e+02
  5.200      2.65578e+02       6.46763e+00      -5.44728e+00       7.12674e-04       5.43207e+02
  5.300      2.64830e+02       6.74174e+00      -5.52781e+00       7.05570e-04       5.36276e+02
  5.400      2.64094e+02       7.02088e+00      -5.61863e+00       6.98485e-04       5.29416e+02
  5.500      2.63369e+02       7.27792e+00      -5.70524e+00       6.91423e-04       5.22625e+02
  5.600      2.62657e+02       7.48567e+00      -5.77313e+00       6.84383e-04       5.15904e+02
  5.700      2.61955e+02       7.61701e+00      -5.80782e+00       6.77367e-04       5.09252e+02
  5.800      2.61266e+02       7.64477e+00      -5.79480e+00       6.70375e-04       5.02669e+02
  5.900      2.60587e+02       7.54383e+00      -5.72081e+00       6.63411e-04       4.96154e+02
  6.000      2.59919e+02       7.32069e+00      -5.59189e+00       6.56472e-04       4.89707e+02
  6.100      2.59264e+02       7.00667e+00      -5.42922e+00       6.49558e-04       4.83328e+02
  6.200      2.58620e+02       6.63380e+00      -5.25441e+00       6.42669e-04       4.77014e+02
  6.300      2.57988e+02       6.23409e+00      -5.08908e+00       6.35804e-04       4.70766e+02
  6.400      2.57370e+02       5.83956e+00      -4.95483e+00       6.28961e-04       4.64583e+02
  6.500      2.56765e+02       5.48223e+00      -4.87327e+00       6.22141e-04       4.58465e+02
  6.600      2.56173e+02       5.19410e+00      -4.86600e+00       6.15342e-04       4.52409e+02
  6.700      2.55595e+02       5.00568e+00      -4.95331e+00       6.08565e-04       4.46417e+02
  6.800      2.55028e+02       4.92472e+00      -5.13541e+00       6.01819e-04       4.40489e+02
  6.900      2.54465e+02       4.94144e+00      -5.39709e+00       5.95122e-04       4.34626e+02
  7.000      2.53901e+02       5.04557e+00      -5.72271e+00       5.88491e-04       4.28830e+02
  7.100      2.53330e+02       5.22688e+00      -6.09665e+00       5.81942e-04       4.23104e+02
  7.200      2.52745e+02       5.47510e+00      -6.50327e+00       5.75490e-04       4.17448e+02
  7.300      2.52142e+02       5.78001e+00      -6.92695e+00       5.69151e-04       4.11864e+02
  7.400      2.51513e+02       6.13134e+00      -7.35205e+00       5.62939e-04       4.06353e+02
  7.500      2.50854e+02       6.51886e+00      -7.76296e+00       5.56868e-04       4.00917e+02
  7.600      2.50158e+02       6.93199e+00      -8.14596e+00       5.50947e-04       3.95555e+02
  7.700      2.49429e+02       7.35811e+00      -8.50036e+00       5.45162e-04       3.90261e+02
  7.800      2.48670e+02       7.78373e+00      -8.83080e+00       5.39488e-04       3.85024e+02
  7.900      2.47886e+02       8.19535e+00      -9.14193e+00       5.33901e-04       3.79835e+02
  8.000      2.47081e+02       8.57948e+00      -9.43840e+00       5.28378e-04       3.74685e+02
  8.100      2.46261e+02       8.92263e+00      -9.72488e+00       5.22896e-04       3.69567e+02
  8.200      2.45429e+02       9.21130e+00      -1.00060e+01       5.17435e-04       3.64472e+02
  8.300      2.44590e+02       9.43200e+00      -1.02865e+01       5.11974e-04       3.59393e+02
  8.400      2.43749e+02       9.57124e+00      -1.05709e+01       5.06493e-04       3.54322e+02
  8.500      2.42910e+02       9.61553e+00      -1.08640e+01       5.00973e-04       3.49254e+02
  8.600      2.42077e+02       9.55885e+00      -1.11683e+01       4.95409e-04       3.44191e+02
  8.700      2.41249e+02       9.41442e+00      -1.14811e+01       4.89836e-04       3.39155e+02
  8.800      2.40426e+02       9.19857e+00      -1.17989e+01       4.84291e-04       3.34171e+02
  8.900      2.39606e+02       8.92762e+00      -1.21182e+01       4.78810e-04       3.29263e+02
  9.000      2.38790e+02       8.61788e+00      -1.24353e+01       4.73427e-04       3.24452e+02
  9.100      2.37976e+02       8.28569e+00      -1.27467e+01       4.68176e-04       3.19760e+02
  9.200      2.37164e+02       7.94737e+00      -1.30489e+01       4.63087e-04       3.15206e+02
  9.300      2.36354e+02       7.61922e+00      -1.33383e+01       4.58191e-04       3.10807e+02
  9.400      2.35544e+02       7.31759e+00      -1.36114e+01       4.53517e-04       3.06582e+02
  9.500      2.34733e+02       7.05878e+00      -1.38646e+01       4.49091e-04       3.02546e+02
  9.600      2.33922e+02       6.85896e+00      -1.40944e+01       4.44942e-04       2.98714e+02
  9.700      2.33110e+02       6.72567e+00      -1.42989e+01       4.41071e-04       2.95087e+02
  9.800      2.32296e+02       6.65331e+00      -1.44786e+01       4.37448e-04       2.91642e+02
  9.900      2.31482e+02       6.63524e+00      -1.46344e+01       4.34042e-04       2.88357e+02
 10.000      2.30667e+02       6.66477e+00      -1.47670e+01       4.30820e-04       2.85210e+02
 10.100      2.29853e+02       6.73525e+00      -1.48773e+01       4.27754e-04       2.82180e+02
 10.200      2.29038e+02       6.84000e+00      -1.49659e+01       4.24814e-04       2.79247e+02
 10.300      2.28223e+02       6.97235e+00      -1.50337e+01       4.21972e-04       2.76392e+02
 10.400      2.27410e+02       7.12564e+00      -1.50815e+01       4.19201e-04       2.73598e+02
 10.500      2.26597e+02       7.29320e+00      -1.51100e+01       4.16474e-04       2.70847e+02
 10.600      2.25785e+02       7.46836e+00      -1.51200e+01       4.13765e-04       2.68121e+02
 10.700      2.24974e+02       7.64446e+00      -1.51123e+01       4.11049e-04       2.65405e+02
 10.800      2.24166e+02       7.81482e+00      -1.50876e+01       4.08301e-04       2.62683e+02
 10.900      2.23359e+02       7.97278e+00      -1.50469e+01       4.05498e-04       2.59940e+02
 11.000      2.22554e+02       8.11167e+00      -1.49907e+01       4.02614e-04       2.57162e+02
 11.100      2.21752e+02       8.22482e+00      -1.49200e+01       3.99630e-04       2.54335e+02
 11.200      2.20952e+02       8.30557e+00      -1.48355e+01       3.96522e-04       2.51447e+02
 11.300      2.20156e+02       8.34752e+00      -1.47379e+01       3.93269e-04       2.48486e+02
 11.400      2.19364e+02       8.35033e+00      -1.46280e+01       3.89861e-04       2.45447e+02
 11.500      2.18581e+02       8.31961e+00      -1.45060e+01       3.86294e-04       2.42333e+02
 11.600      2.17810e+02       8.26122e+00      -1.43725e+01       3.82563e-04       2.39146e+02
 11.700      2.17055e+02       8.18101e+00      -1.42279e+01       3.78668e-04       2.35890e+02
 11.800      2.16318e+02       8.08482e+00      -1.40726e+01       3.74605e-04       2.32567e+02
 11.900      2.15604e+02       7.97852e+00      -1.39071e+01       3.70373e-04       2.29181e+02
 12.000      2.14917e+02       7.86795e+00      -1.37318e+01       3.65971e-04       2.25735e+02
 12.100      2.14259e+02       7.75897e+00      -1.35471e+01       3.61398e-04       2.22232e+02
 12.200      2.13634e+02       7.65743e+00      -1.33534e+01       3.56654e-04       2.18675e+02
 12.300      2.13046e+02       7.56918e+00      -1.31513e+01       3.51740e-04       2.15069e+02
 12.400      2.12499e+02       7.50007e+00      -1.29412e+01       3.46656e-04       2.11415e+02
 12.500      2.11995e+02       7.45596e+00      -1.27234e+01       3.41405e-04       2.07719e+02
 12.600      2.11539e+02       7.44271e+00      -1.24984e+01       3.35988e-04       2.03984e+02
 12.700      2.11134e+02       7.46615e+00      -1.22667e+01       3.30410e-04       2.00213e+02
 12.800      2.10782e+02       7.53069e+00      -1.20289e+01       3.24677e-04       1.96411e+02
 12.900      2.10482e+02       7.63379e+00      -1.17872e+01       3.18821e-04       1.92594e+02
 13.000      2.10229e+02       7.77088e+00      -1.15439e+01       3.12876e-04       1.88776e+02
 13.100      2.10021e+02       7.93738e+00      -1.13016e+01       3.06876e-04       1.84973e+02
 13.200      2.09854e+02       8.12871e+00      -1.10626e+01       3.00852e-04       1.81198e+02
 13.300      2.09724e+02       8.34029e+00      -1.08295e+01       2.94833e-04       1.77463e+02
 13.400      2.09628e+02       8.56755e+00      -1.06046e+01       2.88848e-04       1.73781e+02
 13.500      2.09563e+02       8.80592e+00      -1.03905e+01       2.82921e-04       1.70162e+02
 13.600      2.09524e+02       9.05080e+00      -1.01895e+01       2.77077e-04       1.66616e+02
 13.700      2.09509e+02       9.29763e+00      -1.00041e+01       2.71336e-04       1.63152e+02
 13.800      2.09513e+02       9.54183e+00      -9.83683e+00       2.65719e-04       1.59778e+02
 13.900      2.09534e+02       9.77882e+00      -9.69007e+00       2.60244e-04       1.56501e+02
 14.000      2.09568e+02       1.00040e+01      -9.56627e+00       2.54927e-04       1.53328e+02
 14.100      2.09611e+02       1.02129e+01      -9.46789e+00       2.49784e-04       1.50266e+02
 14.200      2.09660e+02       1.04014e+01      -9.39683e+00       2.44824e-04       1.47316e+02
 14.300      2.09713e+02       1.05687e+01      -9.35214e+00       2.40043e-04       1.44477e+02
 14.400      2.09771e+02       1.07151e+01      -9.33191e+00       2.35432e-04       1.41740e+02
 14.500      2.09832e+02       1.08408e+01      -9.33427e+00       2.30982e-04       1.39101e+02
 14.600      2.09894e+02       1.09460e+01      -9.35732e+00       2.26684e-04       1.36554e+02
 14.700      2.09958e+02       1.10309e+01      -9.39916e+00       2.22530e-04       1.34092e+02
 14.800      2.10023e+02       1.10958e+01      -9.45792e+00       2.18513e-04       1.31712e+02
 14.900      2.10087e+02       1.11408e+01      -9.53169e+00       2.14626e-04       1.29409e+02
 15.000      2.10150e+02       1.11661e+01      -9.61859e+00       2.10861e-04       1.27177e+02
 15.100      2.10211e+02       1.11720e+01      -9.71672e+00       2.07213e-04       1.25013e+02
 15.200      2.10269e+02       1.11587e+01      -9.82420e+00       2.03675e-04       1.22912e+02
 15.300      2.10324e+02       1.11264e+01      -9.93913e+00       2.00241e-04       1.20871e+02
 15.400      2.10374e+02       1.10753e+01      -1.00596e+01       1.96906e-04       1.18887e+02
 15.500      2.10418e+02       1.10057e+01      -1.01838e+01       1.93665e-04       1.16954e+02
 15.600      2.10456e+02       1.09177e+01      -1.03097e+01       1.90513e-04       1.15071e+02
 15.700      2.10487e+02       1.08116e+01      -1.04356e+01       1.87444e-04       1.13234e+02
 15.800      2.10510e+02       1.06875e+01      -1.05594e+01       1.84454e-04       1.11440e+02
 15.900      2.10524e+02       1.05458e+01      -1.06793e+01       1.81539e-04       1.09687e+02
 16.000      2.10529e+02       1.03866e+01      -1.07935e+01       1.78695e-04       1.07971e+02
 16.100      2.10523e+02       1.02101e+01      -1.09000e+01       1.75918e-04       1.06290e+02
 16.200      2.10506e+02       1.00165e+01      -1.09969e+01       1.73204e-04       1.04641e+02
 16.300      2.10476e+02       9.80610e+00      -1.10824e+01       1.70549e-04       1.03023e+02
 16.400      2.10434e+02       9.57907e+00      -1.11545e+01       1.67951e-04       1.01433e+02
 16.500      2.10377e+02       9.33564e+00      -1.12114e+01       1.65406e-04       9.98690e+01
 16.600      2.10307e+02       9.07615e+00      -1.12516e+01       1.62910e-04       9.83292e+01
 16.700      2.10223e+02       8.80141e+00      -1.12753e+01       1.60461e-04       9.68128e+01
 16.800      2.10128e+02       8.51233e+00      -1.12829e+01       1.58057e-04       9.53192e+01
 16.900      2.10023e+02       8.20977e+00      -1.12747e+01       1.55695e-04       9.38475e+01
 17.000      2.09910e+02       7.89464e+00      -1.12511e+01       1.53372e-04       9.23974e+01
 17.100      2.09789e+02       7.56783e+00      -1.12126e+01       1.51086e-04       9.09680e+01
 17.200      2.09663e+02       7.23022e+00      -1.11594e+01       1.48835e-04       8.95590e+01
 17.300      2.09533e+02       6.88272e+00      -1.10921e+01       1.46617e-04       8.81697e+01
 17.400      2.09401e+02       6.52620e+00      -1.10110e+01       1.44430e-04       8.67995e+01
 17.500      2.09267e+02       6.16156e+00      -1.09165e+01       1.42272e-04       8.54480e+01
 17.600      2.09134e+02       5.78969e+00      -1.08090e+01       1.40141e-04       8.41147e+01
 17.700      2.09004e+02       5.41148e+00      -1.06889e+01       1.38035e-04       8.27990e+01
 17.800      2.08876e+02       5.02784e+00      -1.05565e+01       1.35953e-04       8.15006e+01
 17.900      2.08754e+02       4.63962e+00      -1.04123e+01       1.33894e-04       8.02190e+01
 18.000      2.08639e+02       4.24775e+00      -1.02567e+01       1.31855e-04       7.89538e+01
 18.100      2.08531e+02       3.85309e+00      -1.00900e+01       1.29836e-04       7.77045e+01
 18.200      2.08433e+02       3.45656e+00      -9.91268e+00       1.27834e-04       7.64709e+01
 18.300      2.08346e+02       3.05904e+00      -9.72510e+00       1.25850e-04       7.52524e+01
 18.400      2.08272e+02       2.66140e+00      -9.52765e+00       1.23881e-04       7.40488e+01
 18.500      2.08212e+02       2.26456e+00      -9.32071e+00       1.21927e-04       7.28597e+01
 18.600      2.08167e+02       1.86940e+00      -9.10470e+00       1.19987e-04       7.16848e+01
 18.700      2.08140e+02       1.47680e+00      -8.88000e+00       1.18059e-04       7.05239e+01
 18.800      2.08131e+02       1.08768e+00      -8.64701e+00       1.16143e-04       6.93765e+01
 18.900      2.08141e+02       7.02847e-01      -8.40631e+00       1.14240e-04       6.82429e+01
 19.000      2.08169e+02       3.23137e-01      -8.15865e+00       1.12351e-04       6.71234e+01
 19.100      2.08215e+02      -5.06451e-02      -7.90478e+00       1.10477e-04       6.60185e+01
 19.200      2.08277e+02      -4.17688e-01      -7.64544e+00       1.08621e-04       6.49286e+01
 19.300      2.08355e+02      -7.77176e-01      -7.38140e+00       1.06784e-04       6.38541e+01
 19.400      2.08447e+02      -1.12831e+00      -7.11338e+00       1.04966e-04       6.27953e+01
 19.500      2.08554e+02      -1.47028e+00      -6.84214e+00       1.03170e-04       6.17523e+01
 19.600      2.08674e+02      -1.80226e+00      -6.56844e+00       1.01396e-04       6.07256e+01
 19.700      2.08807e+02      -2.12346e+00      -6.29301e+00       9.96458e-05       5.97154e+01
 19.800      2.08952e+02      -2.43305e+00      -6.01662e+00       9.79200e-05       5.87217e+01
 19.900      2.09107e+02      -2.73024e+00      -5.74000e+00       9.62195e-05       5.77449e+01
 20.000      2.09273e+02      -3.01421e+00      -5.46391e+00       9.45451e-05       5.67851e+01
 20.100      2.09448e+02      -3.28414e+00      -5.18909e+00       9.28976e-05       5.58423e+01
 20.200      2.09632e+02      -3.53924e+00      -4.91629e+00       9.12777e-05       5.49167e+01
 20.300      2.09824e+02      -3.77868e+00      -4.64628e+00       8.96859e-05       5.40084e+01
