# Data Source: NASA GEOS5 Near-Real-Time
# Model Time = 2010-09-30 18:00:00
# Location = [  39.7393, -104.9900 ]
# Fields = [ Z(km), T(K), U(m/s), V(m/s), R(g/cm3), P(mbar) ]
# Ground Height = 1.589
  0.000      3.04207e+02       2.38910e+00       1.98248e+00       1.16561e-03       1.01767e+03
  0.100      3.03607e+02       2.38298e+00       2.01388e+00       1.15428e-03       1.00578e+03
  0.200      3.03020e+02       2.37306e+00       2.04948e+00       1.14301e-03       9.94038e+02
  0.300      3.02419e+02       2.36708e+00       2.08071e+00       1.13191e-03       9.82431e+02
  0.400      3.01783e+02       2.37270e+00       2.09911e+00       1.12105e-03       9.70961e+02
  0.500      3.01111e+02       2.39166e+00       2.10177e+00       1.11044e-03       9.59628e+02
  0.600      3.00444e+02       2.41714e+00       2.09400e+00       1.09992e-03       9.48431e+02
  0.700      2.99803e+02       2.44345e+00       2.08198e+00       1.08941e-03       9.37369e+02
  0.800      2.99157e+02       2.46982e+00       2.07247e+00       1.07903e-03       9.26439e+02
  0.900      2.98475e+02       2.49699e+00       2.07107e+00       1.06889e-03       9.15637e+02
  1.000      2.97779e+02       2.52991e+00       2.07598e+00       1.05890e-03       9.04961e+02
  1.100      2.97108e+02       2.57442e+00       2.08258e+00       1.04891e-03       8.94405e+02
  1.200      2.96469e+02       2.62287e+00       2.08528e+00       1.03890e-03       8.83969e+02
  1.300      2.95838e+02       2.65523e+00       2.07757e+00       1.02898e-03       8.73658e+02
  1.400      2.95189e+02       2.65619e+00       2.05958e+00       1.01922e-03       8.63474e+02
  1.500      2.94502e+02       2.62456e+00       2.04949e+00       1.00969e-03       8.53413e+02
  1.600      2.93761e+02       2.56189e+00       2.06796e+00       1.00045e-03       8.43470e+02
  1.700      2.92976e+02       2.47392e+00       2.12873e+00       9.91433e-04       8.33637e+02
  1.800      2.92178e+02       2.36913e+00       2.24098e+00       9.82534e-04       8.23904e+02
  1.900      2.91389e+02       2.25704e+00       2.40733e+00       9.73667e-04       8.14265e+02
  2.000      2.90607e+02       2.14995e+00       2.61193e+00       9.64843e-04       8.04720e+02
  2.100      2.89827e+02       2.06042e+00       2.83618e+00       9.56084e-04       7.95275e+02
  2.200      2.89050e+02       1.99561e+00       3.07322e+00       9.47387e-04       7.85927e+02
  2.300      2.88285e+02       1.95724e+00       3.32793e+00       9.38718e-04       7.76674e+02
  2.400      2.87542e+02       1.95465e+00       3.60060e+00       9.30042e-04       7.67512e+02
  2.500      2.86836e+02       2.05181e+00       3.85616e+00       9.21310e-04       7.58440e+02
  2.600      2.86188e+02       2.33592e+00       4.04446e+00       9.12465e-04       7.49461e+02
  2.700      2.85609e+02       2.85585e+00       4.11565e+00       9.03473e-04       7.40576e+02
  2.800      2.85097e+02       3.53199e+00       4.02104e+00       8.94352e-04       7.31784e+02
  2.900      2.84642e+02       4.25808e+00       3.71250e+00       8.85135e-04       7.23086e+02
  3.000      2.84232e+02       4.94823e+00       3.18594e+00       8.75861e-04       7.14481e+02
  3.100      2.83850e+02       5.55945e+00       2.53007e+00       8.66590e-04       7.05968e+02
  3.200      2.83477e+02       6.05451e+00       1.84491e+00       8.57381e-04       6.97548e+02
  3.300      2.83095e+02       6.42321e+00       1.19514e+00       8.48286e-04       6.89217e+02
  3.400      2.82689e+02       6.70215e+00       5.84297e-01       8.39345e-04       6.80974e+02
  3.500      2.82243e+02       6.93253e+00       9.88070e-03       8.30597e-04       6.72815e+02
  3.600      2.81749e+02       7.14647e+00      -5.26721e-01       8.22067e-04       6.64739e+02
  3.700      2.81204e+02       7.35949e+00      -1.01695e+00       8.13754e-04       6.56745e+02
  3.800      2.80608e+02       7.58526e+00      -1.45148e+00       8.05655e-04       6.48831e+02
  3.900      2.79965e+02       7.83612e+00      -1.82777e+00       7.97758e-04       6.40998e+02
  4.000      2.79283e+02       8.12086e+00      -2.16077e+00       7.90029e-04       6.33240e+02
  4.100      2.78574e+02       8.44770e+00      -2.46825e+00       7.82427e-04       6.25556e+02
  4.200      2.77850e+02       8.82183e+00      -2.76601e+00       7.74917e-04       6.17942e+02
  4.300      2.77122e+02       9.23324e+00      -3.06023e+00       7.67470e-04       6.10399e+02
  4.400      2.76400e+02       9.66721e+00      -3.35411e+00       7.60056e-04       6.02928e+02
  4.500      2.75695e+02       1.01089e+01      -3.65084e+00       7.52649e-04       5.95529e+02
  4.600      2.75010e+02       1.05424e+01      -3.95389e+00       7.45242e-04       5.88204e+02
  4.700      2.74345e+02       1.09506e+01      -4.26693e+00       7.37839e-04       5.80952e+02
  4.800      2.73698e+02       1.13166e+01      -4.59362e+00       7.30444e-04       5.73773e+02
  4.900      2.73066e+02       1.16241e+01      -4.93166e+00       7.23065e-04       5.66665e+02
  5.000      2.72443e+02       1.18591e+01      -5.26447e+00       7.15719e-04       5.59630e+02
  5.100      2.71824e+02       1.20077e+01      -5.57335e+00       7.08423e-04       5.52666e+02
  5.200      2.71202e+02       1.20567e+01      -5.84037e+00       7.01193e-04       5.45773e+02
  5.300      2.70576e+02       1.20013e+01      -6.05874e+00       6.94031e-04       5.38951e+02
  5.400      2.69947e+02       1.18434e+01      -6.22993e+00       6.86932e-04       5.32199e+02
  5.500      2.69318e+02       1.15846e+01      -6.35562e+00       6.79890e-04       5.25516e+02
  5.600      2.68690e+02       1.12288e+01      -6.43740e+00       6.72902e-04       5.18902e+02
  5.700      2.68063e+02       1.07892e+01      -6.47665e+00       6.65969e-04       5.12356e+02
  5.800      2.67433e+02       1.02818e+01      -6.47464e+00       6.59095e-04       5.05877e+02
  5.900      2.66799e+02       9.72276e+00      -6.43264e+00       6.52287e-04       4.99464e+02
  6.000      2.66158e+02       9.12819e+00      -6.35523e+00       6.45546e-04       4.93116e+02
  6.100      2.65509e+02       8.51388e+00      -6.25725e+00       6.38878e-04       4.86832e+02
  6.200      2.64851e+02       7.89555e+00      -6.15553e+00       6.32286e-04       4.80614e+02
  6.300      2.64182e+02       7.28897e+00      -6.06690e+00       6.25771e-04       4.74461e+02
  6.400      2.63501e+02       6.70904e+00      -6.00249e+00       6.19338e-04       4.68373e+02
  6.500      2.62806e+02       6.16802e+00      -5.95587e+00       6.12989e-04       4.62348e+02
  6.600      2.62095e+02       5.67768e+00      -5.91726e+00       6.06726e-04       4.56386e+02
  6.700      2.61365e+02       5.24978e+00      -5.87687e+00       6.00552e-04       4.50485e+02
  6.800      2.60617e+02       4.89454e+00      -5.82672e+00       5.94468e-04       4.44644e+02
  6.900      2.59852e+02       4.61408e+00      -5.76813e+00       5.88465e-04       4.38862e+02
  7.000      2.59075e+02       4.40798e+00      -5.70540e+00       5.82532e-04       4.33138e+02
  7.100      2.58290e+02       4.27580e+00      -5.64281e+00       5.76659e-04       4.27472e+02
  7.200      2.57502e+02       4.21673e+00      -5.58451e+00       5.70834e-04       4.21863e+02
  7.300      2.56711e+02       4.22371e+00      -5.53201e+00       5.65055e-04       4.16311e+02
  7.400      2.55919e+02       4.28431e+00      -5.48459e+00       5.59321e-04       4.10814e+02
  7.500      2.55124e+02       4.38593e+00      -5.44144e+00       5.53633e-04       4.05373e+02
  7.600      2.54326e+02       4.51595e+00      -5.40177e+00       5.47993e-04       3.99988e+02
  7.700      2.53524e+02       4.66359e+00      -5.36466e+00       5.42398e-04       3.94657e+02
  7.800      2.52721e+02       4.82534e+00      -5.32879e+00       5.36848e-04       3.89381e+02
  7.900      2.51918e+02       4.99945e+00      -5.29269e+00       5.31338e-04       3.84160e+02
  8.000      2.51116e+02       5.18419e+00      -5.25492e+00       5.25866e-04       3.78993e+02
  8.100      2.50316e+02       5.37782e+00      -5.21405e+00       5.20428e-04       3.73880e+02
  8.200      2.49519e+02       5.57703e+00      -5.16974e+00       5.15025e-04       3.68820e+02
  8.300      2.48721e+02       5.77520e+00      -5.12399e+00       5.09666e-04       3.63814e+02
  8.400      2.47915e+02       5.96527e+00      -5.07914e+00       5.04360e-04       3.58860e+02
  8.500      2.47098e+02       6.14020e+00      -5.03747e+00       4.99115e-04       3.53957e+02
  8.600      2.46263e+02       6.29297e+00      -5.00131e+00       4.93941e-04       3.49105e+02
  8.700      2.45409e+02       6.42060e+00      -4.97375e+00       4.88842e-04       3.44303e+02
  8.800      2.44537e+02       6.52952e+00      -4.95976e+00       4.83813e-04       3.39550e+02
  8.900      2.43648e+02       6.62752e+00      -4.96455e+00       4.78851e-04       3.34846e+02
  9.000      2.42746e+02       6.72239e+00      -4.99334e+00       4.73948e-04       3.30190e+02
  9.100      2.41831e+02       6.82190e+00      -5.05134e+00       4.69101e-04       3.25582e+02
  9.200      2.40907e+02       6.93381e+00      -5.14217e+00       4.64302e-04       3.21020e+02
  9.300      2.39980e+02       7.06579e+00      -5.26014e+00       4.59542e-04       3.16506e+02
  9.400      2.39056e+02       7.22544e+00      -5.39614e+00       4.54807e-04       3.12038e+02
  9.500      2.38141e+02       7.42038e+00      -5.54106e+00       4.50085e-04       3.07618e+02
  9.600      2.37243e+02       7.65824e+00      -5.68578e+00       4.45365e-04       3.03244e+02
  9.700      2.36369e+02       7.94653e+00      -5.82122e+00       4.40634e-04       2.98917e+02
  9.800      2.35521e+02       8.28392e+00      -5.94040e+00       4.35888e-04       2.94637e+02
  9.900      2.34698e+02       8.65183e+00      -6.04042e+00       4.31132e-04       2.90403e+02
 10.000      2.33895e+02       9.02972e+00      -6.11885e+00       4.26374e-04       2.86216e+02
 10.100      2.33110e+02       9.39704e+00      -6.17327e+00       4.21622e-04       2.82075e+02
 10.200      2.32338e+02       9.73324e+00      -6.20124e+00       4.16880e-04       2.77980e+02
 10.300      2.31578e+02       1.00179e+01      -6.20037e+00       4.12158e-04       2.73932e+02
 10.400      2.30825e+02       1.02405e+01      -6.17180e+00       4.07460e-04       2.69929e+02
 10.500      2.30078e+02       1.04090e+01      -6.12325e+00       4.02790e-04       2.65972e+02
 10.600      2.29335e+02       1.05335e+01      -6.06314e+00       3.98152e-04       2.62060e+02
 10.700      2.28593e+02       1.06241e+01      -5.99993e+00       3.93549e-04       2.58193e+02
 10.800      2.27852e+02       1.06907e+01      -5.94205e+00       3.88984e-04       2.54371e+02
 10.900      2.27109e+02       1.07434e+01      -5.89793e+00       3.84462e-04       2.50594e+02
 11.000      2.26363e+02       1.07915e+01      -5.87466e+00       3.79983e-04       2.46861e+02
 11.100      2.25621e+02       1.08401e+01      -5.87053e+00       3.75537e-04       2.43172e+02
 11.200      2.24889e+02       1.08925e+01      -5.88034e+00       3.71112e-04       2.39528e+02
 11.300      2.24178e+02       1.09519e+01      -5.89886e+00       3.66693e-04       2.35927e+02
 11.400      2.23494e+02       1.10216e+01      -5.92088e+00       3.62268e-04       2.32369e+02
 11.500      2.22847e+02       1.11048e+01      -5.94118e+00       3.57825e-04       2.28855e+02
 11.600      2.22245e+02       1.12049e+01      -5.95455e+00       3.53353e-04       2.25384e+02
 11.700      2.21695e+02       1.13240e+01      -5.95621e+00       3.48842e-04       2.21955e+02
 11.800      2.21192e+02       1.14585e+01      -5.94376e+00       3.44302e-04       2.18570e+02
 11.900      2.20730e+02       1.16028e+01      -5.91568e+00       3.39748e-04       2.15228e+02
 12.000      2.20301e+02       1.17513e+01      -5.87043e+00       3.35193e-04       2.11931e+02
 12.100      2.19899e+02       1.18981e+01      -5.80645e+00       3.30652e-04       2.08678e+02
 12.200      2.19516e+02       1.20377e+01      -5.72222e+00       3.26136e-04       2.05470e+02
 12.300      2.19145e+02       1.21645e+01      -5.61619e+00       3.21660e-04       2.02307e+02
 12.400      2.18780e+02       1.22727e+01      -5.48685e+00       3.17233e-04       1.99190e+02
 12.500      2.18413e+02       1.23581e+01      -5.33542e+00       3.12864e-04       1.96118e+02
 12.600      2.18042e+02       1.24193e+01      -5.16828e+00       3.08557e-04       1.93089e+02
 12.700      2.17665e+02       1.24549e+01      -4.99235e+00       3.04313e-04       1.90104e+02
 12.800      2.17278e+02       1.24638e+01      -4.81459e+00       3.00133e-04       1.87159e+02
 12.900      2.16878e+02       1.24446e+01      -4.64193e+00       2.96020e-04       1.84255e+02
 13.000      2.16462e+02       1.23962e+01      -4.48132e+00       2.91976e-04       1.81389e+02
 13.100      2.16028e+02       1.23173e+01      -4.33968e+00       2.88001e-04       1.78560e+02
 13.200      2.15573e+02       1.22066e+01      -4.22398e+00       2.84097e-04       1.75769e+02
 13.300      2.15093e+02       1.20635e+01      -4.14043e+00       2.80264e-04       1.73012e+02
 13.400      2.14593e+02       1.18914e+01      -4.08858e+00       2.76500e-04       1.70291e+02
 13.500      2.14075e+02       1.16962e+01      -4.06421e+00       2.72798e-04       1.67606e+02
 13.600      2.13546e+02       1.14840e+01      -4.06310e+00       2.69152e-04       1.64957e+02
 13.700      2.13010e+02       1.12607e+01      -4.08099e+00       2.65555e-04       1.62344e+02
 13.800      2.12472e+02       1.10324e+01      -4.11365e+00       2.62003e-04       1.59768e+02
 13.900      2.11936e+02       1.08048e+01      -4.15684e+00       2.58490e-04       1.57228e+02
 14.000      2.11408e+02       1.05842e+01      -4.20631e+00       2.55010e-04       1.54725e+02
 14.100      2.10893e+02       1.03763e+01      -4.25783e+00       2.51558e-04       1.52259e+02
 14.200      2.10395e+02       1.01873e+01      -4.30716e+00       2.48131e-04       1.49830e+02
 14.300      2.09918e+02       1.00209e+01      -4.35109e+00       2.44724e-04       1.47438e+02
 14.400      2.09463e+02       9.87408e+00      -4.38973e+00       2.41334e-04       1.45080e+02
 14.500      2.09030e+02       9.74252e+00      -4.42389e+00       2.37961e-04       1.42757e+02
 14.600      2.08620e+02       9.62178e+00      -4.45436e+00       2.34604e-04       1.40466e+02
 14.700      2.08231e+02       9.50746e+00      -4.48193e+00       2.31260e-04       1.38206e+02
 14.800      2.07864e+02       9.39514e+00      -4.50741e+00       2.27928e-04       1.35975e+02
 14.900      2.07520e+02       9.28043e+00      -4.53158e+00       2.24609e-04       1.33773e+02
 15.000      2.07197e+02       9.15892e+00      -4.55524e+00       2.21300e-04       1.31597e+02
 15.100      2.06897e+02       9.02620e+00      -4.57920e+00       2.18001e-04       1.29448e+02
 15.200      2.06619e+02       8.87787e+00      -4.60423e+00       2.14711e-04       1.27323e+02
 15.300      2.06364e+02       8.70953e+00      -4.63115e+00       2.11430e-04       1.25222e+02
 15.400      2.06130e+02       8.51753e+00      -4.66053e+00       2.08157e-04       1.23145e+02
 15.500      2.05919e+02       8.30243e+00      -4.69175e+00       2.04897e-04       1.21091e+02
 15.600      2.05730e+02       8.06625e+00      -4.72380e+00       2.01653e-04       1.19065e+02
 15.700      2.05562e+02       7.81099e+00      -4.75566e+00       1.98430e-04       1.17066e+02
 15.800      2.05414e+02       7.53866e+00      -4.78630e+00       1.95233e-04       1.15098e+02
 15.900      2.05288e+02       7.25127e+00      -4.81470e+00       1.92065e-04       1.13160e+02
 16.000      2.05182e+02       6.95082e+00      -4.83984e+00       1.88931e-04       1.11256e+02
 16.100      2.05096e+02       6.63932e+00      -4.86070e+00       1.85832e-04       1.09385e+02
 16.200      2.05029e+02       6.31879e+00      -4.87626e+00       1.82773e-04       1.07550e+02
 16.300      2.04982e+02       5.99123e+00      -4.88550e+00       1.79757e-04       1.05751e+02
 16.400      2.04954e+02       5.65864e+00      -4.88739e+00       1.76787e-04       1.03989e+02
 16.500      2.04945e+02       5.32304e+00      -4.88091e+00       1.73864e-04       1.02265e+02
 16.600      2.04953e+02       4.98643e+00      -4.86504e+00       1.70992e-04       1.00580e+02
 16.700      2.04980e+02       4.65075e+00      -4.83884e+00       1.68172e-04       9.89343e+01
 16.800      2.05024e+02       4.31695e+00      -4.80222e+00       1.65404e-04       9.73268e+01
 16.900      2.05085e+02       3.98533e+00      -4.75570e+00       1.62686e-04       9.57558e+01
 17.000      2.05162e+02       3.65618e+00      -4.69983e+00       1.60016e-04       9.42194e+01
 17.100      2.05254e+02       3.32979e+00      -4.63511e+00       1.57391e-04       9.27158e+01
 17.200      2.05360e+02       3.00645e+00      -4.56209e+00       1.54812e-04       9.12435e+01
 17.300      2.05481e+02       2.68646e+00      -4.48130e+00       1.52274e-04       8.98008e+01
 17.400      2.05615e+02       2.37009e+00      -4.39325e+00       1.49778e-04       8.83862e+01
 17.500      2.05761e+02       2.05763e+00      -4.29848e+00       1.47321e-04       8.69983e+01
 17.600      2.05920e+02       1.74939e+00      -4.19753e+00       1.44902e-04       8.56357e+01
 17.700      2.06089e+02       1.44565e+00      -4.09091e+00       1.42520e-04       8.42970e+01
 17.800      2.06270e+02       1.14670e+00      -3.97917e+00       1.40172e-04       8.29811e+01
 17.900      2.06460e+02       8.52817e-01      -3.86282e+00       1.37859e-04       8.16867e+01
 18.000      2.06659e+02       5.64304e-01      -3.74239e+00       1.35578e-04       8.04127e+01
 18.100      2.06866e+02       2.81448e-01      -3.61843e+00       1.33329e-04       7.91580e+01
 18.200      2.07082e+02       4.53663e-03      -3.49144e+00       1.31109e-04       7.79215e+01
 18.300      2.07304e+02      -2.66134e-01      -3.36198e+00       1.28920e-04       7.67024e+01
 18.400      2.07533e+02      -5.30285e-01      -3.23055e+00       1.26758e-04       7.54997e+01
 18.500      2.07768e+02      -7.87622e-01      -3.09770e+00       1.24624e-04       7.43124e+01
 18.600      2.08007e+02      -1.03786e+00      -2.96395e+00       1.22516e-04       7.31397e+01
 18.700      2.08251e+02      -1.28069e+00      -2.82983e+00       1.20434e-04       7.19810e+01
 18.800      2.08499e+02      -1.51585e+00      -2.69587e+00       1.18376e-04       7.08353e+01
 18.900      2.08749e+02      -1.74303e+00      -2.56260e+00       1.16342e-04       6.97020e+01
 19.000      2.09002e+02      -1.96200e+00      -2.43043e+00       1.14333e-04       6.85808e+01
 19.100      2.09257e+02      -2.17259e+00      -2.29954e+00       1.12348e-04       6.74723e+01
 19.200      2.09512e+02      -2.37465e+00      -2.17011e+00       1.10389e-04       6.63768e+01
 19.300      2.09767e+02      -2.56801e+00      -2.04229e+00       1.08458e-04       6.52950e+01
 19.400      2.10021e+02      -2.75255e+00      -1.91625e+00       1.06555e-04       6.42271e+01
 19.500      2.10274e+02      -2.92809e+00      -1.79215e+00       1.04681e-04       6.31737e+01
 19.600      2.10525e+02      -3.09448e+00      -1.67015e+00       1.02838e-04       6.21352e+01
 19.700      2.10773e+02      -3.25158e+00      -1.55043e+00       1.01025e-04       6.11117e+01
 19.800      2.11017e+02      -3.39922e+00      -1.43315e+00       9.92435e-05       6.01037e+01
 19.900      2.11256e+02      -3.53726e+00      -1.31847e+00       9.74944e-05       5.91114e+01
 20.000      2.11490e+02      -3.66554e+00      -1.20655e+00       9.57780e-05       5.81351e+01
 20.100      2.11718e+02      -3.78391e+00      -1.09756e+00       9.40946e-05       5.71749e+01
 20.200      2.11940e+02      -3.89222e+00      -9.91661e-01       9.24447e-05       5.62311e+01
 20.300      2.12154e+02      -3.99030e+00      -8.89022e-01       9.08287e-05       5.53039e+01
