# Data Source: NASA MERRA (version 2)
# Model Time = 2011-07-26 18:00:00
# Location = [  39.1026,  -84.5123 ]
# Fields = [ Z(km), T(K), U(m/s), V(m/s), R(g/cm3), P(mbar) ]
# Ground Height = 0.165
  0.000      3.05003e+02       2.93854e+00      -2.34107e+00       1.15480e-03       1.01087e+03
  0.100      3.04360e+02       3.01453e+00      -2.37650e+00       1.14415e-03       9.99427e+02
  0.200      3.03710e+02       3.09114e+00      -2.41317e+00       1.13362e-03       9.88118e+02
  0.300      3.02925e+02       3.18076e+00      -2.47571e+00       1.12374e-03       9.76979e+02
  0.400      3.01909e+02       3.29182e+00      -2.58122e+00       1.11490e-03       9.66036e+02
  0.500      3.00777e+02       3.40519e+00      -2.69442e+00       1.10659e-03       9.55244e+02
  0.600      2.99731e+02       3.49185e+00      -2.76007e+00       1.09801e-03       9.44535e+02
  0.700      2.98808e+02       3.56059e+00      -2.76926e+00       1.08898e-03       9.33887e+02
  0.800      2.97890e+02       3.65695e+00      -2.75824e+00       1.07998e-03       9.23321e+02
  0.900      2.96909e+02       3.80696e+00      -2.76124e+00       1.07126e-03       9.12851e+02
  1.000      2.95935e+02       3.98402e+00      -2.80274e+00       1.06257e-03       9.02472e+02
  1.100      2.95053e+02       4.15629e+00      -2.90336e+00       1.05358e-03       8.92173e+02
  1.200      2.94282e+02       4.31588e+00      -3.06356e+00       1.04424e-03       8.81956e+02
  1.300      2.93601e+02       4.46689e+00      -3.27374e+00       1.03464e-03       8.71824e+02
  1.400      2.92995e+02       4.61351e+00      -3.52426e+00       1.02484e-03       8.61782e+02
  1.500      2.92444e+02       4.75994e+00      -3.80543e+00       1.01491e-03       8.51832e+02
  1.600      2.91931e+02       4.91076e+00      -4.10922e+00       1.00494e-03       8.41979e+02
  1.700      2.91436e+02       5.07345e+00      -4.43898e+00       9.94979e-04       8.32223e+02
  1.800      2.90938e+02       5.25671e+00      -4.80296e+00       9.85113e-04       8.22562e+02
  1.900      2.90416e+02       5.46926e+00      -5.20946e+00       9.75407e-04       8.12995e+02
  2.000      2.89848e+02       5.71980e+00      -5.66674e+00       9.65929e-04       8.03521e+02
  2.100      2.89216e+02       6.01589e+00      -6.18159e+00       9.56737e-04       7.94140e+02
  2.200      2.88521e+02       6.34931e+00      -6.74059e+00       9.47821e-04       7.84849e+02
  2.300      2.87779e+02       6.70051e+00      -7.31574e+00       9.39122e-04       7.75646e+02
  2.400      2.87007e+02       7.04971e+00      -7.87876e+00       9.30581e-04       7.66528e+02
  2.500      2.86221e+02       7.37709e+00      -8.40134e+00       9.22140e-04       7.57495e+02
  2.600      2.85437e+02       7.66290e+00      -8.85521e+00       9.13746e-04       7.48544e+02
  2.700      2.84669e+02       7.89632e+00      -9.22216e+00       9.05352e-04       7.39673e+02
  2.800      2.83922e+02       8.08871e+00      -9.50883e+00       8.96945e-04       7.30883e+02
  2.900      2.83202e+02       8.25477e+00      -9.72563e+00       8.88514e-04       7.22174e+02
  3.000      2.82511e+02       8.40924e+00      -9.88299e+00       8.80046e-04       7.13546e+02
  3.100      2.81854e+02       8.56683e+00      -9.99134e+00       8.71533e-04       7.05001e+02
  3.200      2.81236e+02       8.74209e+00      -1.00611e+01       8.62964e-04       6.96538e+02
  3.300      2.80655e+02       8.94340e+00      -1.01019e+01       8.54346e-04       6.88158e+02
  3.400      2.80102e+02       9.17132e+00      -1.01226e+01       8.45707e-04       6.79859e+02
  3.500      2.79569e+02       9.42590e+00      -1.01320e+01       8.37076e-04       6.71640e+02
  3.600      2.79047e+02       9.70720e+00      -1.01388e+01       8.28480e-04       6.63502e+02
  3.700      2.78527e+02       1.00153e+01      -1.01518e+01       8.19946e-04       6.55443e+02
  3.800      2.78000e+02       1.03501e+01      -1.01796e+01       8.11499e-04       6.47462e+02
  3.900      2.77462e+02       1.07074e+01      -1.02243e+01       8.03149e-04       6.39561e+02
  4.000      2.76919e+02       1.10759e+01      -1.02773e+01       7.94881e-04       6.31738e+02
  4.100      2.76377e+02       1.14436e+01      -1.03288e+01       7.86680e-04       6.23996e+02
  4.200      2.75842e+02       1.17986e+01      -1.03694e+01       7.78530e-04       6.16335e+02
  4.300      2.75319e+02       1.21290e+01      -1.03893e+01       7.70416e-04       6.08756e+02
  4.400      2.74815e+02       1.24228e+01      -1.03789e+01       7.62324e-04       6.01259e+02
  4.500      2.74334e+02       1.26693e+01      -1.03294e+01       7.54244e-04       5.93846e+02
  4.600      2.73872e+02       1.28643e+01      -1.02367e+01       7.46189e-04       5.86514e+02
  4.700      2.73419e+02       1.30066e+01      -1.00987e+01       7.38182e-04       5.79261e+02
  4.800      2.72967e+02       1.30952e+01      -9.91321e+00       7.30245e-04       5.72086e+02
  4.900      2.72507e+02       1.31289e+01      -9.67825e+00       7.22400e-04       5.64986e+02
  5.000      2.72030e+02       1.31064e+01      -9.39170e+00       7.14666e-04       5.57959e+02
  5.100      2.71528e+02       1.30266e+01      -9.05145e+00       7.07065e-04       5.51005e+02
  5.200      2.70993e+02       1.28898e+01      -8.65781e+00       6.99609e-04       5.44121e+02
  5.300      2.70429e+02       1.27049e+01      -8.22587e+00       6.92289e-04       5.37307e+02
  5.400      2.69843e+02       1.24842e+01      -7.77641e+00       6.85084e-04       5.30563e+02
  5.500      2.69244e+02       1.22401e+01      -7.33024e+00       6.77974e-04       5.23891e+02
  5.600      2.68639e+02       1.19849e+01      -6.90814e+00       6.70939e-04       5.17290e+02
  5.700      2.68036e+02       1.17310e+01      -6.53092e+00       6.63960e-04       5.10760e+02
  5.800      2.67442e+02       1.14907e+01      -6.21936e+00       6.57020e-04       5.04302e+02
  5.900      2.66866e+02       1.12762e+01      -5.99406e+00       6.50101e-04       4.97916e+02
  6.000      2.66309e+02       1.10945e+01      -5.86300e+00       6.43200e-04       4.91601e+02
  6.100      2.65763e+02       1.09443e+01      -5.81425e+00       6.36331e-04       4.85355e+02
  6.200      2.65221e+02       1.08234e+01      -5.83415e+00       6.29514e-04       4.79175e+02
  6.300      2.64674e+02       1.07297e+01      -5.90905e+00       6.22764e-04       4.73060e+02
  6.400      2.64114e+02       1.06610e+01      -6.02530e+00       6.16098e-04       4.67006e+02
  6.500      2.63532e+02       1.06154e+01      -6.16922e+00       6.09532e-04       4.61011e+02
  6.600      2.62921e+02       1.05907e+01      -6.32717e+00       6.03081e-04       4.55075e+02
  6.700      2.62272e+02       1.05848e+01      -6.48548e+00       5.96759e-04       4.49194e+02
  6.800      2.61583e+02       1.05952e+01      -6.63393e+00       5.90573e-04       4.43368e+02
  6.900      2.60861e+02       1.06188e+01      -6.77141e+00       5.84503e-04       4.37600e+02
  7.000      2.60118e+02       1.06522e+01      -6.89831e+00       5.78526e-04       4.31891e+02
  7.100      2.59365e+02       1.06922e+01      -7.01501e+00       5.72621e-04       4.26246e+02
  7.200      2.58614e+02       1.07353e+01      -7.12191e+00       5.66766e-04       4.20667e+02
  7.300      2.57876e+02       1.07782e+01      -7.21939e+00       5.60941e-04       4.15156e+02
  7.400      2.57162e+02       1.08177e+01      -7.30784e+00       5.55126e-04       4.09714e+02
  7.500      2.56484e+02       1.08503e+01      -7.38766e+00       5.49302e-04       4.04345e+02
  7.600      2.55852e+02       1.08728e+01      -7.45924e+00       5.43448e-04       3.99051e+02
  7.700      2.55271e+02       1.08837e+01      -7.52518e+00       5.37556e-04       3.93829e+02
  7.800      2.54733e+02       1.08863e+01      -7.59327e+00       5.31638e-04       3.88672e+02
  7.900      2.54226e+02       1.08845e+01      -7.67206e+00       5.25706e-04       3.83571e+02
  8.000      2.53740e+02       1.08822e+01      -7.77009e+00       5.19775e-04       3.78518e+02
  8.100      2.53263e+02       1.08832e+01      -7.89591e+00       5.13857e-04       3.73504e+02
  8.200      2.52783e+02       1.08916e+01      -8.05805e+00       5.07966e-04       3.68523e+02
  8.300      2.52290e+02       1.09110e+01      -8.26507e+00       5.02114e-04       3.63567e+02
  8.400      2.51773e+02       1.09455e+01      -8.52550e+00       4.96313e-04       3.58630e+02
  8.500      2.51220e+02       1.09990e+01      -8.84789e+00       4.90575e-04       3.53705e+02
  8.600      2.50620e+02       1.10752e+01      -9.24072e+00       4.84910e-04       3.48786e+02
  8.700      2.49968e+02       1.11759e+01      -9.70476e+00       4.79333e-04       3.43878e+02
  8.800      2.49269e+02       1.12984e+01      -1.02257e+01       4.73859e-04       3.39000e+02
  8.900      2.48529e+02       1.14395e+01      -1.07876e+01       4.68506e-04       3.34175e+02
  9.000      2.47755e+02       1.15960e+01      -1.13743e+01       4.63287e-04       3.29423e+02
  9.100      2.46953e+02       1.17646e+01      -1.19698e+01       4.58218e-04       3.24764e+02
  9.200      2.46130e+02       1.19423e+01      -1.25580e+01       4.53312e-04       3.20217e+02
  9.300      2.45293e+02       1.21258e+01      -1.31229e+01       4.48581e-04       3.15797e+02
  9.400      2.44447e+02       1.23119e+01      -1.36484e+01       4.44040e-04       3.11522e+02
  9.500      2.43600e+02       1.24974e+01      -1.41186e+01       4.39698e-04       3.07407e+02
  9.600      2.42757e+02       1.26792e+01      -1.45173e+01       4.35567e-04       3.03465e+02
  9.700      2.41926e+02       1.28541e+01      -1.48284e+01       4.31658e-04       2.99712e+02
  9.800      2.41111e+02       1.30196e+01      -1.50408e+01       4.27973e-04       2.96152e+02
  9.900      2.40311e+02       1.31762e+01      -1.51580e+01       4.24491e-04       2.92769e+02
 10.000      2.39527e+02       1.33246e+01      -1.51866e+01       4.21187e-04       2.89542e+02
 10.100      2.38756e+02       1.34658e+01      -1.51332e+01       4.18039e-04       2.86452e+02
 10.200      2.37996e+02       1.36006e+01      -1.50044e+01       4.15022e-04       2.83481e+02
 10.300      2.37248e+02       1.37298e+01      -1.48068e+01       4.12115e-04       2.80609e+02
 10.400      2.36509e+02       1.38543e+01      -1.45469e+01       4.09296e-04       2.77822e+02
 10.500      2.35778e+02       1.39749e+01      -1.42313e+01       4.06544e-04       2.75101e+02
 10.600      2.35054e+02       1.40925e+01      -1.38666e+01       4.03839e-04       2.72432e+02
 10.700      2.34336e+02       1.42080e+01      -1.34595e+01       4.01161e-04       2.69798e+02
 10.800      2.33622e+02       1.43222e+01      -1.30165e+01       3.98491e-04       2.67186e+02
 10.900      2.32911e+02       1.44360e+01      -1.25441e+01       3.95810e-04       2.64581e+02
 11.000      2.32202e+02       1.45502e+01      -1.20490e+01       3.93100e-04       2.61970e+02
 11.100      2.31494e+02       1.46656e+01      -1.15378e+01       3.90344e-04       2.59340e+02
 11.200      2.30785e+02       1.47831e+01      -1.10170e+01       3.87524e-04       2.56677e+02
 11.300      2.30073e+02       1.49036e+01      -1.04932e+01       3.84624e-04       2.53971e+02
 11.400      2.29359e+02       1.50280e+01      -9.97307e+00       3.81628e-04       2.51210e+02
 11.500      2.28640e+02       1.51570e+01      -9.46296e+00       3.78521e-04       2.48384e+02
 11.600      2.27916e+02       1.52912e+01      -8.96695e+00       3.75298e-04       2.45489e+02
 11.700      2.27187e+02       1.54310e+01      -8.48706e+00       3.71957e-04       2.42526e+02
 11.800      2.26454e+02       1.55768e+01      -8.02524e+00       3.68501e-04       2.39497e+02
 11.900      2.25717e+02       1.57290e+01      -7.58347e+00       3.64929e-04       2.36404e+02
 12.000      2.24977e+02       1.58878e+01      -7.16370e+00       3.61243e-04       2.33249e+02
 12.100      2.24234e+02       1.60536e+01      -6.76789e+00       3.57445e-04       2.30034e+02
 12.200      2.23488e+02       1.62269e+01      -6.39801e+00       3.53535e-04       2.26761e+02
 12.300      2.22739e+02       1.64079e+01      -6.05601e+00       3.49515e-04       2.23432e+02
 12.400      2.21989e+02       1.65970e+01      -5.74387e+00       3.45388e-04       2.20050e+02
 12.500      2.21237e+02       1.67947e+01      -5.46354e+00       3.41156e-04       2.16617e+02
 12.600      2.20484e+02       1.70011e+01      -5.21698e+00       3.36820e-04       2.13136e+02
 12.700      2.19729e+02       1.72167e+01      -5.00617e+00       3.32384e-04       2.09609e+02
 12.800      2.18975e+02       1.74420e+01      -4.83305e+00       3.27850e-04       2.06040e+02
 12.900      2.18220e+02       1.76771e+01      -4.69959e+00       3.23222e-04       2.02431e+02
 13.000      2.17465e+02       1.79224e+01      -4.60772e+00       3.18502e-04       1.98785e+02
 13.100      2.16712e+02       1.81763e+01      -4.55738e+00       3.13700e-04       1.95110e+02
 13.200      2.15962e+02       1.84338e+01      -4.54543e+00       3.08834e-04       1.91419e+02
 13.300      2.15219e+02       1.86897e+01      -4.56845e+00       3.03924e-04       1.87727e+02
 13.400      2.14484e+02       1.89390e+01      -4.62301e+00       2.98985e-04       1.84046e+02
 13.500      2.13760e+02       1.91762e+01      -4.70572e+00       2.94036e-04       1.80389e+02
 13.600      2.13050e+02       1.93964e+01      -4.81315e+00       2.89091e-04       1.76766e+02
 13.700      2.12356e+02       1.95944e+01      -4.94188e+00       2.84165e-04       1.73188e+02
 13.800      2.11680e+02       1.97649e+01      -5.08851e+00       2.79273e-04       1.69664e+02
 13.900      2.11025e+02       1.99027e+01      -5.24961e+00       2.74426e-04       1.66203e+02
 14.000      2.10393e+02       2.00028e+01      -5.42178e+00       2.69637e-04       1.62814e+02
 14.100      2.09786e+02       2.00599e+01      -5.60159e+00       2.64917e-04       1.59503e+02
 14.200      2.09208e+02       2.00688e+01      -5.78563e+00       2.60276e-04       1.56277e+02
 14.300      2.08661e+02       2.00244e+01      -5.97049e+00       2.55723e-04       1.53142e+02
 14.400      2.08147e+02       1.99216e+01      -6.15275e+00       2.51268e-04       1.50103e+02
 14.500      2.07667e+02       1.97563e+01      -6.32945e+00       2.46916e-04       1.47163e+02
 14.600      2.07222e+02       1.95307e+01      -6.49960e+00       2.42666e-04       1.44320e+02
 14.700      2.06811e+02       1.92483e+01      -6.66279e+00       2.38514e-04       1.41569e+02
 14.800      2.06432e+02       1.89127e+01      -6.81860e+00       2.34454e-04       1.38905e+02
 14.900      2.06085e+02       1.85276e+01      -6.96661e+00       2.30485e-04       1.36324e+02
 15.000      2.05769e+02       1.80965e+01      -7.10638e+00       2.26601e-04       1.33821e+02
 15.100      2.05482e+02       1.76230e+01      -7.23751e+00       2.22799e-04       1.31392e+02
 15.200      2.05224e+02       1.71108e+01      -7.35957e+00       2.19078e-04       1.29035e+02
 15.300      2.04993e+02       1.65635e+01      -7.47213e+00       2.15432e-04       1.26745e+02
 15.400      2.04790e+02       1.59846e+01      -7.57477e+00       2.11860e-04       1.24520e+02
 15.500      2.04611e+02       1.53778e+01      -7.66708e+00       2.08359e-04       1.22355e+02
 15.600      2.04458e+02       1.47467e+01      -7.74862e+00       2.04925e-04       1.20249e+02
 15.700      2.04328e+02       1.40949e+01      -7.81899e+00       2.01556e-04       1.18197e+02
 15.800      2.04220e+02       1.34259e+01      -7.87775e+00       1.98251e-04       1.16197e+02
 15.900      2.04135e+02       1.27435e+01      -7.92448e+00       1.95006e-04       1.14247e+02
 16.000      2.04070e+02       1.20511e+01      -7.95877e+00       1.91819e-04       1.12345e+02
 16.100      2.04024e+02       1.13524e+01      -7.98018e+00       1.88689e-04       1.10487e+02
 16.200      2.03998e+02       1.06511e+01      -7.98831e+00       1.85613e-04       1.08671e+02
 16.300      2.03988e+02       9.95062e+00      -7.98271e+00       1.82589e-04       1.06896e+02
 16.400      2.03996e+02       9.25468e+00      -7.96299e+00       1.79615e-04       1.05159e+02
 16.500      2.04019e+02       8.56687e+00      -7.92870e+00       1.76690e-04       1.03458e+02
 16.600      2.04057e+02       7.89078e+00      -7.87943e+00       1.73812e-04       1.01792e+02
 16.700      2.04109e+02       7.23003e+00      -7.81476e+00       1.70979e-04       1.00158e+02
 16.800      2.04173e+02       6.58777e+00      -7.73437e+00       1.68190e-04       9.85558e+01
 16.900      2.04250e+02       5.96466e+00      -7.63856e+00       1.65444e-04       9.69829e+01
 17.000      2.04340e+02       5.36059e+00      -7.52780e+00       1.62738e-04       9.54387e+01
 17.100      2.04442e+02       4.77540e+00      -7.40258e+00       1.60073e-04       9.39222e+01
 17.200      2.04556e+02       4.20896e+00      -7.26338e+00       1.57446e-04       9.24325e+01
 17.300      2.04682e+02       3.66114e+00      -7.11069e+00       1.54857e-04       9.09686e+01
 17.400      2.04820e+02       3.13179e+00      -6.94499e+00       1.52305e-04       8.95297e+01
 17.500      2.04970e+02       2.62077e+00      -6.76677e+00       1.49788e-04       8.81148e+01
 17.600      2.05132e+02       2.12795e+00      -6.57651e+00       1.47306e-04       8.67231e+01
 17.700      2.05306e+02       1.65319e+00      -6.37469e+00       1.44857e-04       8.53540e+01
 17.800      2.05492e+02       1.19635e+00      -6.16180e+00       1.42442e-04       8.40065e+01
 17.900      2.05689e+02       7.57289e-01      -5.93832e+00       1.40058e-04       8.26799e+01
 18.000      2.05898e+02       3.35866e-01      -5.70474e+00       1.37705e-04       8.13737e+01
 18.100      2.06118e+02      -6.80531e-02      -5.46154e+00       1.35383e-04       8.00870e+01
 18.200      2.06349e+02      -4.54608e-01      -5.20920e+00       1.33091e-04       7.88193e+01
 18.300      2.06592e+02      -8.23930e-01      -4.94822e+00       1.30827e-04       7.75700e+01
 18.400      2.06846e+02      -1.17617e+00      -4.67907e+00       1.28592e-04       7.63384e+01
 18.500      2.07111e+02      -1.51147e+00      -4.40224e+00       1.26384e-04       7.51241e+01
 18.600      2.07388e+02      -1.82995e+00      -4.11821e+00       1.24204e-04       7.39263e+01
 18.700      2.07675e+02      -2.13176e+00      -3.82746e+00       1.22050e-04       7.27448e+01
 18.800      2.07973e+02      -2.41704e+00      -3.53049e+00       1.19921e-04       7.15788e+01
 18.900      2.08281e+02      -2.68592e+00      -3.22777e+00       1.17819e-04       7.04281e+01
 19.000      2.08600e+02      -2.93857e+00      -2.91983e+00       1.15741e-04       6.92921e+01
 19.100      2.08930e+02      -3.17546e+00      -2.60770e+00       1.13689e-04       6.81709e+01
 19.200      2.09268e+02      -3.39726e+00      -2.29279e+00       1.11663e-04       6.70647e+01
 19.300      2.09613e+02      -3.60466e+00      -1.97652e+00       1.09666e-04       6.59739e+01
 19.400      2.09966e+02      -3.79835e+00      -1.66030e+00       1.07697e-04       6.48987e+01
 19.500      2.10324e+02      -3.97903e+00      -1.34555e+00       1.05759e-04       6.38392e+01
 19.600      2.10686e+02      -4.14738e+00      -1.03368e+00       1.03852e-04       6.27958e+01
 19.700      2.11051e+02      -4.30409e+00      -7.26117e-01       1.01976e-04       6.17686e+01
 19.800      2.11419e+02      -4.44984e+00      -4.24269e-01       1.00133e-04       6.07577e+01
 19.900      2.11788e+02      -4.58533e+00      -1.29547e-01       9.83221e-05       5.97632e+01
 20.000      2.12156e+02      -4.71125e+00       1.56629e-01       9.65452e-05       5.87852e+01
 20.100      2.12523e+02      -4.82827e+00       4.32842e-01       9.48024e-05       5.78240e+01
 20.200      2.12889e+02      -4.93711e+00       6.97677e-01       9.30938e-05       5.68794e+01
 20.300      2.13250e+02      -5.03843e+00       9.49714e-01       9.14200e-05       5.59516e+01
