# Data Source: NASA GEOS5 Near-Real-Time
# Model Time = 2010-07-10 18:00:00
# Location = [  39.7393, -104.9900 ]
# Fields = [ Z(km), T(K), U(m/s), V(m/s), R(g/cm3), P(mbar) ]
# Ground Height = 1.589
  0.000      3.09724e+02       2.96071e+00      -1.29450e+00       1.13999e-03       1.01335e+03
  0.100      3.09069e+02       2.96094e+00      -1.31780e+00       1.12906e-03       1.00151e+03
  0.200      3.08414e+02       2.96106e+00      -1.34242e+00       1.11823e-03       9.89804e+02
  0.300      3.07762e+02       2.96193e+00      -1.35806e+00       1.10752e-03       9.78250e+02
  0.400      3.07113e+02       2.96462e+00      -1.35650e+00       1.09694e-03       9.66856e+02
  0.500      3.06473e+02       2.97244e+00      -1.34978e+00       1.08645e-03       9.55613e+02
  0.600      3.05845e+02       2.98976e+00      -1.36011e+00       1.07602e-03       9.44507e+02
  0.700      3.05225e+02       3.01711e+00      -1.37980e+00       1.06568e-03       9.33534e+02
  0.800      3.04593e+02       3.05109e+00      -1.37097e+00       1.05551e-03       9.22704e+02
  0.900      3.03942e+02       3.08682e+00      -1.32215e+00       1.04552e-03       9.12024e+02
  1.000      3.03296e+02       3.11652e+00      -1.28150e+00       1.03564e-03       9.01485e+02
  1.100      3.02672e+02       3.13281e+00      -1.29490e+00       1.02580e-03       8.91078e+02
  1.200      3.02064e+02       3.13290e+00      -1.34643e+00       1.01601e-03       8.80805e+02
  1.300      3.01456e+02       3.11617e+00      -1.39728e+00       1.00635e-03       8.70669e+02
  1.400      3.00835e+02       3.09498e+00      -1.42717e+00       9.96843e-04       8.60670e+02
  1.500      3.00199e+02       3.09740e+00      -1.43818e+00       9.87498e-04       8.50802e+02
  1.600      2.99546e+02       3.14705e+00      -1.43457e+00       9.78317e-04       8.41057e+02
  1.700      2.98864e+02       3.24022e+00      -1.42503e+00       9.69327e-04       8.31430e+02
  1.800      2.98139e+02       3.36451e+00      -1.41956e+00       9.60560e-04       8.21910e+02
  1.900      2.97368e+02       3.50816e+00      -1.42423e+00       9.52013e-04       8.12493e+02
  2.000      2.96569e+02       3.66056e+00      -1.43877e+00       9.43628e-04       8.03172e+02
  2.100      2.95758e+02       3.81187e+00      -1.46294e+00       9.35346e-04       7.93944e+02
  2.200      2.94939e+02       3.96111e+00      -1.50326e+00       9.27145e-04       7.84804e+02
  2.300      2.94110e+02       4.11312e+00      -1.57070e+00       9.19032e-04       7.75750e+02
  2.400      2.93268e+02       4.27125e+00      -1.67267e+00       9.11010e-04       7.66779e+02
  2.500      2.92413e+02       4.43069e+00      -1.79781e+00       9.03083e-04       7.57891e+02
  2.600      2.91545e+02       4.58401e+00      -1.92876e+00       8.95253e-04       7.49089e+02
  2.700      2.90663e+02       4.72970e+00      -2.05460e+00       8.87518e-04       7.40371e+02
  2.800      2.89772e+02       4.88357e+00      -2.18348e+00       8.79867e-04       7.31736e+02
  2.900      2.88872e+02       5.06456e+00      -2.32692e+00       8.72286e-04       7.23181e+02
  3.000      2.87967e+02       5.28131e+00      -2.48682e+00       8.64770e-04       7.14703e+02
  3.100      2.87052e+02       5.52028e+00      -2.64435e+00       8.57326e-04       7.06298e+02
  3.200      2.86123e+02       5.76508e+00      -2.77801e+00       8.49963e-04       6.97966e+02
  3.300      2.85181e+02       6.00246e+00      -2.86943e+00       8.42676e-04       6.89705e+02
  3.400      2.84237e+02       6.22533e+00      -2.90645e+00       8.35433e-04       6.81514e+02
  3.500      2.83304e+02       6.42733e+00      -2.87765e+00       8.28199e-04       6.73394e+02
  3.600      2.82386e+02       6.60610e+00      -2.78183e+00       8.20960e-04       6.65345e+02
  3.700      2.81473e+02       6.76814e+00      -2.64063e+00       8.13746e-04       6.57368e+02
  3.800      2.80553e+02       6.92118e+00      -2.47882e+00       8.06595e-04       6.49460e+02
  3.900      2.79618e+02       7.07276e+00      -2.31424e+00       7.99525e-04       6.41622e+02
  4.000      2.78677e+02       7.22976e+00      -2.14226e+00       7.92511e-04       6.33853e+02
  4.100      2.77743e+02       7.39895e+00      -1.95365e+00       7.85517e-04       6.26154e+02
  4.200      2.76828e+02       7.58809e+00      -1.74192e+00       7.78510e-04       6.18524e+02
  4.300      2.75935e+02       7.81124e+00      -1.51784e+00       7.71483e-04       6.10963e+02
  4.400      2.75063e+02       8.08491e+00      -1.29891e+00       7.64438e-04       6.03472e+02
  4.500      2.74214e+02       8.42477e+00      -1.10207e+00       7.57377e-04       5.96051e+02
  4.600      2.73387e+02       8.82952e+00      -9.33571e-01       7.50299e-04       5.88699e+02
  4.700      2.72584e+02       9.28237e+00      -7.89840e-01       7.43200e-04       5.81417e+02
  4.800      2.71806e+02       9.76593e+00      -6.66928e-01       7.36078e-04       5.74203e+02
  4.900      2.71055e+02       1.02623e+01      -5.62325e-01       7.28935e-04       5.67058e+02
  5.000      2.70325e+02       1.07523e+01      -4.77646e-01       7.21783e-04       5.59982e+02
  5.100      2.69611e+02       1.12162e+01      -4.15243e-01       7.14637e-04       5.52974e+02
  5.200      2.68908e+02       1.16344e+01      -3.77952e-01       7.07513e-04       5.46034e+02
  5.300      2.68207e+02       1.19843e+01      -3.76700e-01       7.00434e-04       5.39163e+02
  5.400      2.67499e+02       1.22409e+01      -4.29107e-01       6.93426e-04       5.32359e+02
  5.500      2.66772e+02       1.23792e+01      -5.52995e-01       6.86517e-04       5.25622e+02
  5.600      2.66020e+02       1.23855e+01      -7.60154e-01       6.79723e-04       5.18953e+02
  5.700      2.65253e+02       1.23066e+01      -1.03045e+00       6.73015e-04       5.12349e+02
  5.800      2.64487e+02       1.22091e+01      -1.33324e+00       6.66348e-04       5.05811e+02
  5.900      2.63742e+02       1.21594e+01      -1.63787e+00       6.59679e-04       4.99336e+02
  6.000      2.63026e+02       1.22099e+01      -1.91676e+00       6.52979e-04       4.92925e+02
  6.100      2.62338e+02       1.23709e+01      -2.15138e+00       6.46263e-04       4.86577e+02
  6.200      2.61669e+02       1.26450e+01      -2.32490e+00       6.39550e-04       4.80295e+02
  6.300      2.61013e+02       1.30347e+01      -2.42046e+00       6.32860e-04       4.74079e+02
  6.400      2.60363e+02       1.35287e+01      -2.43148e+00       6.26210e-04       4.67930e+02
  6.500      2.59718e+02       1.40803e+01      -2.37776e+00       6.19604e-04       4.61847e+02
  6.600      2.59076e+02       1.46368e+01      -2.28330e+00       6.13045e-04       4.55827e+02
  6.700      2.58434e+02       1.51459e+01      -2.17211e+00       6.06536e-04       4.49871e+02
  6.800      2.57791e+02       1.55652e+01      -2.06521e+00       6.00082e-04       4.43977e+02
  6.900      2.57146e+02       1.58913e+01      -1.97251e+00       5.93683e-04       4.38144e+02
  7.000      2.56498e+02       1.61294e+01      -1.90128e+00       5.87343e-04       4.32373e+02
  7.100      2.55846e+02       1.62851e+01      -1.85880e+00       5.81064e-04       4.26663e+02
  7.200      2.55189e+02       1.63664e+01      -1.85043e+00       5.74848e-04       4.21015e+02
  7.300      2.54528e+02       1.64075e+01      -1.86218e+00       5.68692e-04       4.15427e+02
  7.400      2.53865e+02       1.64578e+01      -1.86885e+00       5.62593e-04       4.09900e+02
  7.500      2.53200e+02       1.65668e+01      -1.84511e+00       5.56546e-04       4.04434e+02
  7.600      2.52537e+02       1.67841e+01      -1.76567e+00       5.50547e-04       3.99027e+02
  7.700      2.51876e+02       1.71411e+01      -1.61764e+00       5.44595e-04       3.93679e+02
  7.800      2.51213e+02       1.76270e+01      -1.41736e+00       5.38695e-04       3.88389e+02
  7.900      2.50546e+02       1.82247e+01      -1.18534e+00       5.32852e-04       3.83156e+02
  8.000      2.49872e+02       1.89171e+01      -9.42121e-01       5.27072e-04       3.77980e+02
  8.100      2.49187e+02       1.96872e+01      -7.07922e-01       5.21360e-04       3.72858e+02
  8.200      2.48492e+02       2.05164e+01      -4.92542e-01       5.15713e-04       3.67792e+02
  8.300      2.47791e+02       2.13846e+01      -2.92891e-01       5.10123e-04       3.62779e+02
  8.400      2.47090e+02       2.22712e+01      -1.05094e-01       5.04580e-04       3.57821e+02
  8.500      2.46393e+02       2.31560e+01       7.47348e-02       4.99072e-04       3.52917e+02
  8.600      2.45705e+02       2.40189e+01       2.50225e-01       4.93592e-04       3.48067e+02
  8.700      2.45029e+02       2.48533e+01       4.15349e-01       4.88133e-04       3.43271e+02
  8.800      2.44366e+02       2.56702e+01       5.51523e-01       4.82694e-04       3.38528e+02
  8.900      2.43718e+02       2.64818e+01       6.39324e-01       4.77273e-04       3.33839e+02
  9.000      2.43085e+02       2.73001e+01       6.59327e-01       4.71870e-04       3.29202e+02
  9.100      2.42468e+02       2.81373e+01       5.92114e-01       4.66483e-04       3.24618e+02
  9.200      2.41869e+02       2.90061e+01       4.27636e-01       4.61111e-04       3.20086e+02
  9.300      2.41291e+02       2.99211e+01       1.85040e-01       4.55748e-04       3.15607e+02
  9.400      2.40738e+02       3.08972e+01      -1.10853e-01       4.50387e-04       3.11181e+02
  9.500      2.40215e+02       3.19492e+01      -4.35228e-01       4.45024e-04       3.06808e+02
  9.600      2.39726e+02       3.30921e+01      -7.63266e-01       4.39654e-04       3.02488e+02
  9.700      2.39274e+02       3.43398e+01      -1.07052e+00       4.34271e-04       2.98221e+02
  9.800      2.38852e+02       3.56739e+01      -1.34561e+00       4.28891e-04       2.94007e+02
  9.900      2.38439e+02       3.70354e+01      -1.59332e+00       4.23550e-04       2.89844e+02
 10.000      2.38015e+02       3.83633e+01      -1.81944e+00       4.18286e-04       2.85732e+02
 10.100      2.37557e+02       3.95961e+01      -2.02977e+00       4.13134e-04       2.81670e+02
 10.200      2.37044e+02       4.06726e+01      -2.23008e+00       4.08128e-04       2.77656e+02
 10.300      2.36456e+02       4.15321e+01      -2.42607e+00       4.03301e-04       2.73691e+02
 10.400      2.35784e+02       4.21491e+01      -2.61657e+00       3.98659e-04       2.69773e+02
 10.500      2.35045e+02       4.25530e+01      -2.78981e+00       3.94172e-04       2.65900e+02
 10.600      2.34256e+02       4.27779e+01      -2.93309e+00       3.89806e-04       2.62072e+02
 10.700      2.33433e+02       4.28577e+01      -3.03370e+00       3.85529e-04       2.58286e+02
 10.800      2.32595e+02       4.28267e+01      -3.07895e+00       3.81310e-04       2.54543e+02
 10.900      2.31759e+02       4.27188e+01      -3.05612e+00       3.77119e-04       2.50840e+02
 11.000      2.30941e+02       4.25670e+01      -2.95486e+00       3.72930e-04       2.47178e+02
 11.100      2.30149e+02       4.23944e+01      -2.78393e+00       3.68728e-04       2.43555e+02
 11.200      2.29389e+02       4.22192e+01      -2.56132e+00       3.64510e-04       2.39974e+02
 11.300      2.28665e+02       4.20600e+01      -2.30511e+00       3.60269e-04       2.36434e+02
 11.400      2.27983e+02       4.19348e+01      -2.03335e+00       3.56002e-04       2.32936e+02
 11.500      2.27347e+02       4.18622e+01      -1.76411e+00       3.51704e-04       2.29481e+02
 11.600      2.26761e+02       4.18604e+01      -1.51547e+00       3.47371e-04       2.26070e+02
 11.700      2.26231e+02       4.19455e+01      -1.30417e+00       3.42999e-04       2.22703e+02
 11.800      2.25749e+02       4.21086e+01      -1.13263e+00       3.38602e-04       2.19380e+02
 11.900      2.25303e+02       4.23256e+01      -9.94437e-01       3.34199e-04       2.16099e+02
 12.000      2.24881e+02       4.25720e+01      -8.83028e-01       3.29809e-04       2.12861e+02
 12.100      2.24470e+02       4.28235e+01      -7.91854e-01       3.25451e-04       2.09665e+02
 12.200      2.24057e+02       4.30557e+01      -7.14361e-01       3.21144e-04       2.06510e+02
 12.300      2.23631e+02       4.32441e+01      -6.43997e-01       3.16904e-04       2.03396e+02
 12.400      2.23178e+02       4.33643e+01      -5.74208e-01       3.12748e-04       2.00321e+02
 12.500      2.22688e+02       4.33952e+01      -4.99756e-01       3.08687e-04       1.97286e+02
 12.600      2.22166e+02       4.33328e+01      -4.22625e-01       3.04713e-04       1.94290e+02
 12.700      2.21622e+02       4.31790e+01      -3.47270e-01       3.00811e-04       1.91332e+02
 12.800      2.21064e+02       4.29359e+01      -2.78143e-01       2.96968e-04       1.88413e+02
 12.900      2.20503e+02       4.26055e+01      -2.19703e-01       2.93171e-04       1.85531e+02
 13.000      2.19947e+02       4.21897e+01      -1.76402e-01       2.89405e-04       1.82687e+02
 13.100      2.19407e+02       4.16906e+01      -1.52697e-01       2.85659e-04       1.79879e+02
 13.200      2.18891e+02       4.11101e+01      -1.53042e-01       2.81921e-04       1.77108e+02
 13.300      2.18409e+02       4.04503e+01      -1.81876e-01       2.78180e-04       1.74373e+02
 13.400      2.17966e+02       3.97149e+01      -2.40933e-01       2.74431e-04       1.71674e+02
 13.500      2.17557e+02       3.89113e+01      -3.26418e-01       2.70681e-04       1.69010e+02
 13.600      2.17176e+02       3.80470e+01      -4.33856e-01       2.66942e-04       1.66384e+02
 13.700      2.16818e+02       3.71299e+01      -5.58772e-01       2.63221e-04       1.63794e+02
 13.800      2.16476e+02       3.61677e+01      -6.96691e-01       2.59527e-04       1.61240e+02
 13.900      2.16145e+02       3.51681e+01      -8.43137e-01       2.55869e-04       1.58724e+02
 14.000      2.15818e+02       3.41389e+01      -9.93638e-01       2.52253e-04       1.56245e+02
 14.100      2.15490e+02       3.30877e+01      -1.14372e+00       2.48688e-04       1.53803e+02
 14.200      2.15155e+02       3.20223e+01      -1.28890e+00       2.45181e-04       1.51398e+02
 14.300      2.14808e+02       3.09503e+01      -1.42476e+00       2.41737e-04       1.49030e+02
 14.400      2.14446e+02       2.98770e+01      -1.54877e+00       2.38357e-04       1.46699e+02
 14.500      2.14072e+02       2.88042e+01      -1.66078e+00       2.35035e-04       1.44402e+02
 14.600      2.13692e+02       2.77339e+01      -1.76079e+00       2.31763e-04       1.42139e+02
 14.700      2.13309e+02       2.66679e+01      -1.84879e+00       2.28534e-04       1.39908e+02
 14.800      2.12926e+02       2.56079e+01      -1.92480e+00       2.25343e-04       1.37706e+02
 14.900      2.12547e+02       2.45557e+01      -1.98881e+00       2.22183e-04       1.35534e+02
 15.000      2.12177e+02       2.35133e+01      -2.04083e+00       2.19048e-04       1.33389e+02
 15.100      2.11818e+02       2.24823e+01      -2.08085e+00       2.15934e-04       1.31270e+02
 15.200      2.11476e+02       2.14646e+01      -2.10888e+00       2.12834e-04       1.29177e+02
 15.300      2.11153e+02       2.04621e+01      -2.12492e+00       2.09745e-04       1.27107e+02
 15.400      2.10853e+02       1.94764e+01      -2.12897e+00       2.06660e-04       1.25060e+02
 15.500      2.10580e+02       1.85092e+01      -2.12118e+00       2.03578e-04       1.23035e+02
 15.600      2.10333e+02       1.75610e+01      -2.10236e+00       2.00503e-04       1.21034e+02
 15.700      2.10111e+02       1.66320e+01      -2.07349e+00       1.97438e-04       1.19059e+02
 15.800      2.09912e+02       1.57222e+01      -2.03556e+00       1.94390e-04       1.17110e+02
 15.900      2.09736e+02       1.48320e+01      -1.98955e+00       1.91362e-04       1.15189e+02
 16.000      2.09581e+02       1.39615e+01      -1.93645e+00       1.88359e-04       1.13298e+02
 16.100      2.09446e+02       1.31108e+01      -1.87724e+00       1.85385e-04       1.11437e+02
 16.200      2.09329e+02       1.22801e+01      -1.81291e+00       1.82445e-04       1.09608e+02
 16.300      2.09229e+02       1.14698e+01      -1.74444e+00       1.79540e-04       1.07812e+02
 16.400      2.09146e+02       1.06798e+01      -1.67281e+00       1.76676e-04       1.06050e+02
 16.500      2.09077e+02       9.91042e+00      -1.59901e+00       1.73855e-04       1.04322e+02
 16.600      2.09021e+02       9.16183e+00      -1.52403e+00       1.71080e-04       1.02629e+02
 16.700      2.08977e+02       8.43420e+00      -1.44885e+00       1.68353e-04       1.00972e+02
 16.800      2.08945e+02       7.72773e+00      -1.37444e+00       1.65678e-04       9.93524e+01
 16.900      2.08922e+02       7.04250e+00      -1.30146e+00       1.63054e-04       9.77684e+01
 17.000      2.08910e+02       6.37858e+00      -1.23013e+00       1.60479e-04       9.62187e+01
 17.100      2.08907e+02       5.73600e+00      -1.16064e+00       1.57951e-04       9.47018e+01
 17.200      2.08914e+02       5.11479e+00      -1.09320e+00       1.55468e-04       9.32159e+01
 17.300      2.08931e+02       4.51500e+00      -1.02800e+00       1.53027e-04       9.17597e+01
 17.400      2.08957e+02       3.93665e+00      -9.65241e-01       1.50626e-04       9.03315e+01
 17.500      2.08993e+02       3.37978e+00      -9.05116e-01       1.48264e-04       8.89301e+01
 17.600      2.09038e+02       2.84442e+00      -8.47824e-01       1.45938e-04       8.75540e+01
 17.700      2.09093e+02       2.33061e+00      -7.93563e-01       1.43647e-04       8.62021e+01
 17.800      2.09157e+02       1.83840e+00      -7.42531e-01       1.41389e-04       8.48731e+01
 17.900      2.09231e+02       1.36780e+00      -6.94923e-01       1.39162e-04       8.35658e+01
 18.000      2.09313e+02       9.18860e-01      -6.50938e-01       1.36965e-04       8.22791e+01
 18.100      2.09405e+02       4.91610e-01      -6.10773e-01       1.34797e-04       8.10121e+01
 18.200      2.09506e+02       8.60888e-02      -5.74625e-01       1.32656e-04       7.97636e+01
 18.300      2.09615e+02      -2.97662e-01      -5.42692e-01       1.30541e-04       7.85328e+01
 18.400      2.09733e+02      -6.59623e-01      -5.15170e-01       1.28450e-04       7.73187e+01
 18.500      2.09861e+02      -9.99750e-01      -4.92256e-01       1.26383e-04       7.61205e+01
 18.600      2.09996e+02      -1.31801e+00      -4.74150e-01       1.24338e-04       7.49373e+01
 18.700      2.10141e+02      -1.61436e+00      -4.61047e-01       1.22315e-04       7.37684e+01
 18.800      2.10294e+02      -1.88877e+00      -4.53144e-01       1.20311e-04       7.26130e+01
 18.900      2.10455e+02      -2.14121e+00      -4.50640e-01       1.18327e-04       7.14704e+01
 19.000      2.10625e+02      -2.37164e+00      -4.53732e-01       1.16362e-04       7.03401e+01
 19.100      2.10803e+02      -2.58012e+00      -4.62580e-01       1.14415e-04       6.92213e+01
 19.200      2.10988e+02      -2.76775e+00      -4.76970e-01       1.12486e-04       6.81143e+01
 19.300      2.11181e+02      -2.93626e+00      -4.96467e-01       1.10577e-04       6.70197e+01
 19.400      2.11380e+02      -3.08738e+00      -5.20629e-01       1.08690e-04       6.59380e+01
 19.500      2.11584e+02      -3.22282e+00      -5.49016e-01       1.06826e-04       6.48696e+01
 19.600      2.11793e+02      -3.34433e+00      -5.81189e-01       1.04986e-04       6.38151e+01
 19.700      2.12006e+02      -3.45361e+00      -6.16707e-01       1.03171e-04       6.27749e+01
 19.800      2.12222e+02      -3.55241e+00      -6.55130e-01       1.01382e-04       6.17493e+01
 19.900      2.12440e+02      -3.64245e+00      -6.96019e-01       9.96202e-05       6.07387e+01
 20.000      2.12660e+02      -3.72545e+00      -7.38933e-01       9.78864e-05       5.97435e+01
 20.100      2.12881e+02      -3.80315e+00      -7.83432e-01       9.61813e-05       5.87638e+01
 20.200      2.13103e+02      -3.87727e+00      -8.29076e-01       9.45056e-05       5.78000e+01
 20.300      2.13323e+02      -3.94954e+00      -8.75424e-01       9.28599e-05       5.68523e+01
