# Data Source: NASA MERRA (version 2)
# Model Time = 2011-11-15 18:00:00
# Location = [  39.1026,  -84.5123 ]
# Fields = [ Z(km), T(K), U(m/s), V(m/s), R(g/cm3), P(mbar) ]
# Ground Height = 0.165
  0.000      2.87455e+02       3.14043e+00       3.77633e+00       1.22706e-03       1.01231e+03
  0.100      2.86827e+02       3.03789e+00       3.88112e+00       1.21523e-03       1.00037e+03
  0.200      2.86200e+02       2.93477e+00       3.96894e+00       1.20353e-03       9.88570e+02
  0.300      2.85527e+02       2.84960e+00       4.58146e+00       1.19211e-03       9.76888e+02
  0.400      2.84775e+02       2.81565e+00       6.11478e+00       1.18108e-03       9.65305e+02
  0.500      2.84012e+02       2.96278e+00       8.00989e+00       1.17017e-03       9.53824e+02
  0.600      2.83339e+02       3.44533e+00       9.38327e+00       1.15897e-03       9.42456e+02
  0.700      2.82764e+02       4.24852e+00       1.00570e+01       1.14746e-03       9.31202e+02
  0.800      2.82236e+02       5.24718e+00       1.03072e+01       1.13586e-03       9.20064e+02
  0.900      2.81721e+02       6.29451e+00       1.02946e+01       1.12430e-03       9.09037e+02
  1.000      2.81202e+02       7.22101e+00       1.00371e+01       1.11284e-03       8.98121e+02
  1.100      2.80673e+02       7.91887e+00       9.55607e+00       1.10152e-03       8.87313e+02
  1.200      2.80142e+02       8.43196e+00       8.90010e+00       1.09030e-03       8.76612e+02
  1.300      2.79621e+02       8.82653e+00       8.12187e+00       1.07913e-03       8.66019e+02
  1.400      2.79123e+02       9.16880e+00       7.27406e+00       1.06797e-03       8.55533e+02
  1.500      2.78660e+02       9.52423e+00       6.40873e+00       1.05677e-03       8.45155e+02
  1.600      2.78241e+02       9.93725e+00       5.56211e+00       1.04550e-03       8.34884e+02
  1.700      2.77875e+02       1.04294e+01       4.75324e+00       1.03414e-03       8.24724e+02
  1.800      2.77570e+02       1.10211e+01       4.00025e+00       1.02266e-03       8.14676e+02
  1.900      2.77332e+02       1.17327e+01       3.32131e+00       1.01105e-03       8.04742e+02
  2.000      2.77170e+02       1.25820e+01       2.73445e+00       9.99301e-04       7.94923e+02
  2.100      2.77060e+02       1.35306e+01       2.25525e+00       9.87495e-04       7.85219e+02
  2.200      2.76951e+02       1.44863e+01       1.89695e+00       9.75816e-04       7.75626e+02
  2.300      2.76789e+02       1.53551e+01       1.67269e+00       9.64444e-04       7.66140e+02
  2.400      2.76524e+02       1.60429e+01       1.59560e+00       9.53550e-04       7.56760e+02
  2.500      2.76102e+02       1.64561e+01       1.67864e+00       9.43296e-04       7.47481e+02
  2.600      2.75508e+02       1.65759e+01       1.91747e+00       9.33724e-04       7.38302e+02
  2.700      2.74786e+02       1.65190e+01       2.27608e+00       9.24658e-04       7.29218e+02
  2.800      2.73990e+02       1.64167e+01       2.71510e+00       9.15910e-04       7.20227e+02
  2.900      2.73174e+02       1.64003e+01       3.19517e+00       9.07294e-04       7.11326e+02
  3.000      2.72390e+02       1.66011e+01       3.67693e+00       8.98630e-04       7.02513e+02
  3.100      2.71687e+02       1.71368e+01       4.12455e+00       8.89760e-04       6.93783e+02
  3.200      2.71071e+02       1.79916e+01       4.53707e+00       8.80669e-04       6.85138e+02
  3.300      2.70523e+02       1.90735e+01       4.93342e+00       8.71429e-04       6.76578e+02
  3.400      2.70023e+02       2.02896e+01       5.33274e+00       8.62109e-04       6.68106e+02
  3.500      2.69553e+02       2.15472e+01       5.75417e+00       8.52775e-04       6.59721e+02
  3.600      2.69093e+02       2.27534e+01       6.21685e+00       8.43492e-04       6.51425e+02
  3.700      2.68625e+02       2.38271e+01       6.73586e+00       8.34314e-04       6.43219e+02
  3.800      2.68152e+02       2.47674e+01       7.29866e+00       8.25241e-04       6.35102e+02
  3.900      2.67679e+02       2.56064e+01       7.88124e+00       8.16250e-04       6.27076e+02
  4.000      2.67215e+02       2.63762e+01       8.45958e+00       8.07320e-04       6.19139e+02
  4.100      2.66766e+02       2.71092e+01       9.00962e+00       7.98430e-04       6.11293e+02
  4.200      2.66340e+02       2.78377e+01       9.50735e+00       7.89559e-04       6.03536e+02
  4.300      2.65944e+02       2.85924e+01       9.93010e+00       7.80689e-04       5.95868e+02
  4.400      2.65576e+02       2.93788e+01       1.02819e+01       7.71828e-04       5.88290e+02
  4.500      2.65227e+02       3.01788e+01       1.05909e+01       7.63002e-04       5.80799e+02
  4.600      2.64888e+02       3.09738e+01       1.08858e+01       7.54239e-04       5.73394e+02
  4.700      2.64549e+02       3.17451e+01       1.11958e+01       7.45564e-04       5.66073e+02
  4.800      2.64200e+02       3.24740e+01       1.15496e+01       7.37002e-04       5.58836e+02
  4.900      2.63833e+02       3.31418e+01       1.19762e+01       7.28579e-04       5.51681e+02
  5.000      2.63438e+02       3.37321e+01       1.25002e+01       7.20313e-04       5.44606e+02
  5.100      2.63014e+02       3.42484e+01       1.31106e+01       7.12210e-04       5.37611e+02
  5.200      2.62559e+02       3.47036e+01       1.37789e+01       7.04263e-04       5.30694e+02
  5.300      2.62076e+02       3.51110e+01       1.44763e+01       6.96469e-04       5.23855e+02
  5.400      2.61564e+02       3.54837e+01       1.51741e+01       6.88822e-04       5.17091e+02
  5.500      2.61024e+02       3.58348e+01       1.58435e+01       6.81318e-04       5.10402e+02
  5.600      2.60456e+02       3.61776e+01       1.64558e+01       6.73953e-04       5.03787e+02
  5.700      2.59862e+02       3.65249e+01       1.69827e+01       6.66723e-04       4.97244e+02
  5.800      2.59242e+02       3.68814e+01       1.74126e+01       6.59619e-04       4.90773e+02
  5.900      2.58600e+02       3.72414e+01       1.77543e+01       6.52630e-04       4.84371e+02
  6.000      2.57939e+02       3.75988e+01       1.80177e+01       6.45745e-04       4.78035e+02
  6.100      2.57262e+02       3.79473e+01       1.82129e+01       6.38951e-04       4.71765e+02
  6.200      2.56573e+02       3.82807e+01       1.83499e+01       6.32239e-04       4.65558e+02
  6.300      2.55874e+02       3.85928e+01       1.84387e+01       6.25597e-04       4.59413e+02
  6.400      2.55169e+02       3.88774e+01       1.84892e+01       6.19016e-04       4.53327e+02
  6.500      2.54461e+02       3.91285e+01       1.85115e+01       6.12486e-04       4.47300e+02
  6.600      2.53752e+02       3.93440e+01       1.85142e+01       6.06003e-04       4.41332e+02
  6.700      2.53041e+02       3.95266e+01       1.85049e+01       5.99571e-04       4.35425e+02
  6.800      2.52329e+02       3.96795e+01       1.84909e+01       5.93196e-04       4.29582e+02
  6.900      2.51615e+02       3.98054e+01       1.84795e+01       5.86879e-04       4.23806e+02
  7.000      2.50900e+02       3.99074e+01       1.84782e+01       5.80627e-04       4.18099e+02
  7.100      2.50183e+02       3.99885e+01       1.84942e+01       5.74441e-04       4.12463e+02
  7.200      2.49464e+02       4.00516e+01       1.85350e+01       5.68326e-04       4.06899e+02
  7.300      2.48743e+02       4.00997e+01       1.86078e+01       5.62284e-04       4.01411e+02
  7.400      2.48021e+02       4.01361e+01       1.87193e+01       5.56318e-04       3.95998e+02
  7.500      2.47296e+02       4.01668e+01       1.88688e+01       5.50420e-04       3.90655e+02
  7.600      2.46570e+02       4.01990e+01       1.90520e+01       5.44576e-04       3.85372e+02
  7.700      2.45841e+02       4.02404e+01       1.92644e+01       5.38775e-04       3.80139e+02
  7.800      2.45109e+02       4.02981e+01       1.95015e+01       5.33003e-04       3.74948e+02
  7.900      2.44374e+02       4.03798e+01       1.97591e+01       5.27251e-04       3.69789e+02
  8.000      2.43636e+02       4.04927e+01       2.00325e+01       5.21507e-04       3.64656e+02
  8.100      2.42895e+02       4.06442e+01       2.03175e+01       5.15760e-04       3.59541e+02
  8.200      2.42151e+02       4.08418e+01       2.06095e+01       5.10002e-04       3.54437e+02
  8.300      2.41402e+02       4.10929e+01       2.09041e+01       5.04221e-04       3.49337e+02
  8.400      2.40651e+02       4.14015e+01       2.11976e+01       4.98421e-04       3.44243e+02
  8.500      2.39896e+02       4.17622e+01       2.14876e+01       4.92633e-04       3.39178e+02
  8.600      2.39139e+02       4.21682e+01       2.17721e+01       4.86891e-04       3.34168e+02
  8.700      2.38381e+02       4.26126e+01       2.20492e+01       4.81229e-04       3.29235e+02
  8.800      2.37622e+02       4.30886e+01       2.23168e+01       4.75679e-04       3.24402e+02
  8.900      2.36864e+02       4.35893e+01       2.25729e+01       4.70271e-04       3.19690e+02
  9.000      2.36107e+02       4.41078e+01       2.28156e+01       4.65033e-04       3.15118e+02
  9.100      2.35351e+02       4.46372e+01       2.30428e+01       4.59993e-04       3.10706e+02
  9.200      2.34599e+02       4.51708e+01       2.32526e+01       4.55177e-04       3.06470e+02
  9.300      2.33850e+02       4.57015e+01       2.34429e+01       4.50610e-04       3.02426e+02
  9.400      2.33105e+02       4.62227e+01       2.36118e+01       4.46316e-04       2.98590e+02
  9.500      2.32365e+02       4.67310e+01       2.37585e+01       4.42296e-04       2.94961e+02
  9.600      2.31629e+02       4.72281e+01       2.38835e+01       4.38518e-04       2.91517e+02
  9.700      2.30899e+02       4.77158e+01       2.39878e+01       4.34952e-04       2.88233e+02
  9.800      2.30172e+02       4.81962e+01       2.40721e+01       4.31566e-04       2.85089e+02
  9.900      2.29450e+02       4.86711e+01       2.41374e+01       4.28331e-04       2.82065e+02
 10.000      2.28731e+02       4.91426e+01       2.41843e+01       4.25219e-04       2.79139e+02
 10.100      2.28017e+02       4.96125e+01       2.42138e+01       4.22202e-04       2.76293e+02
 10.200      2.27306e+02       5.00829e+01       2.42266e+01       4.19253e-04       2.73508e+02
 10.300      2.26599e+02       5.05556e+01       2.42236e+01       4.16347e-04       2.70767e+02
 10.400      2.25896e+02       5.10326e+01       2.42056e+01       4.13458e-04       2.68053e+02
 10.500      2.25195e+02       5.15159e+01       2.41733e+01       4.10560e-04       2.65350e+02
 10.600      2.24498e+02       5.20073e+01       2.41277e+01       4.07632e-04       2.62641e+02
 10.700      2.23804e+02       5.25090e+01       2.40696e+01       4.04648e-04       2.59913e+02
 10.800      2.23113e+02       5.30227e+01       2.39997e+01       4.01587e-04       2.57150e+02
 10.900      2.22424e+02       5.35505e+01       2.39189e+01       3.98427e-04       2.54339e+02
 11.000      2.21739e+02       5.40943e+01       2.38280e+01       3.95146e-04       2.51467e+02
 11.100      2.21055e+02       5.46558e+01       2.37277e+01       3.91727e-04       2.48522e+02
 11.200      2.20375e+02       5.52312e+01       2.36167e+01       3.88157e-04       2.45501e+02
 11.300      2.19701e+02       5.58112e+01       2.34917e+01       3.84437e-04       2.42404e+02
 11.400      2.19036e+02       5.63864e+01       2.33492e+01       3.80567e-04       2.39237e+02
 11.500      2.18380e+02       5.69471e+01       2.31856e+01       3.76547e-04       2.36001e+02
 11.600      2.17738e+02       5.74839e+01       2.29976e+01       3.72377e-04       2.32701e+02
 11.700      2.17110e+02       5.79872e+01       2.27817e+01       3.68059e-04       2.29340e+02
 11.800      2.16500e+02       5.84474e+01       2.25343e+01       3.63595e-04       2.25922e+02
 11.900      2.15910e+02       5.88551e+01       2.22521e+01       3.58985e-04       2.22449e+02
 12.000      2.15342e+02       5.92007e+01       2.19316e+01       3.54232e-04       2.18926e+02
 12.100      2.14798e+02       5.94747e+01       2.15692e+01       3.49338e-04       2.15357e+02
 12.200      2.14281e+02       5.96675e+01       2.11616e+01       3.44307e-04       2.11744e+02
 12.300      2.13793e+02       5.97696e+01       2.07053e+01       3.39141e-04       2.08092e+02
 12.400      2.13337e+02       5.97715e+01       2.01967e+01       3.33844e-04       2.04405e+02
 12.500      2.12914e+02       5.96636e+01       1.96325e+01       3.28420e-04       2.00685e+02
 12.600      2.12527e+02       5.94382e+01       1.90102e+01       3.22876e-04       1.96939e+02
 12.700      2.12174e+02       5.90998e+01       1.83355e+01       3.17235e-04       1.93177e+02
 12.800      2.11853e+02       5.86581e+01       1.76173e+01       3.11527e-04       1.89414e+02
 12.900      2.11562e+02       5.81230e+01       1.68644e+01       3.05779e-04       1.85664e+02
 13.000      2.11298e+02       5.75043e+01       1.60858e+01       3.00018e-04       1.81939e+02
 13.100      2.11058e+02       5.68117e+01       1.52904e+01       2.94269e-04       1.78250e+02
 13.200      2.10841e+02       5.60551e+01       1.44871e+01       2.88555e-04       1.74608e+02
 13.300      2.10643e+02       5.52443e+01       1.36849e+01       2.82896e-04       1.71024e+02
 13.400      2.10462e+02       5.43890e+01       1.28927e+01       2.77314e-04       1.67505e+02
 13.500      2.10296e+02       5.34991e+01       1.21195e+01       2.71827e-04       1.64061e+02
 13.600      2.10143e+02       5.25844e+01       1.13740e+01       2.66451e-04       1.60699e+02
 13.700      2.09999e+02       5.16546e+01       1.06654e+01       2.61202e-04       1.57426e+02
 13.800      2.09863e+02       5.07196e+01       1.00024e+01       2.56094e-04       1.54247e+02
 13.900      2.09731e+02       4.97892e+01       9.39410e+00       2.51140e-04       1.51168e+02
 14.000      2.09602e+02       4.88728e+01       8.84883e+00       2.46351e-04       1.48194e+02
 14.100      2.09475e+02       4.79740e+01       8.36823e+00       2.41726e-04       1.45324e+02
 14.200      2.09350e+02       4.70926e+01       7.94875e+00       2.37256e-04       1.42552e+02
 14.300      2.09228e+02       4.62278e+01       7.58675e+00       2.32932e-04       1.39872e+02
 14.400      2.09109e+02       4.53791e+01       7.27856e+00       2.28747e-04       1.37281e+02
 14.500      2.08993e+02       4.45459e+01       7.02054e+00       2.24692e-04       1.34773e+02
 14.600      2.08882e+02       4.37277e+01       6.80901e+00       2.20759e-04       1.32343e+02
 14.700      2.08775e+02       4.29239e+01       6.64034e+00       2.16943e-04       1.29989e+02
 14.800      2.08673e+02       4.21338e+01       6.51087e+00       2.13235e-04       1.27705e+02
 14.900      2.08576e+02       4.13571e+01       6.41693e+00       2.09631e-04       1.25488e+02
 15.000      2.08485e+02       4.05929e+01       6.35487e+00       2.06123e-04       1.23334e+02
 15.100      2.08401e+02       3.98409e+01       6.32105e+00       2.02706e-04       1.21240e+02
 15.200      2.08324e+02       3.91003e+01       6.31180e+00       1.99374e-04       1.19204e+02
 15.300      2.08253e+02       3.83707e+01       6.32346e+00       1.96123e-04       1.17220e+02
 15.400      2.08191e+02       3.76515e+01       6.35239e+00       1.92948e-04       1.15288e+02
 15.500      2.08136e+02       3.69420e+01       6.39492e+00       1.89844e-04       1.13403e+02
 15.600      2.08090e+02       3.62418e+01       6.44741e+00       1.86806e-04       1.11564e+02
 15.700      2.08054e+02       3.55502e+01       6.50619e+00       1.83830e-04       1.09768e+02
 15.800      2.08027e+02       3.48667e+01       6.56761e+00       1.80913e-04       1.08011e+02
 15.900      2.08010e+02       3.41906e+01       6.62802e+00       1.78050e-04       1.06293e+02
 16.000      2.08003e+02       3.35215e+01       6.68376e+00       1.75237e-04       1.04611e+02
 16.100      2.08007e+02       3.28587e+01       6.73117e+00       1.72472e-04       1.02963e+02
 16.200      2.08023e+02       3.22017e+01       6.76660e+00       1.69752e-04       1.01346e+02
 16.300      2.08050e+02       3.15499e+01       6.78639e+00       1.67072e-04       9.97596e+01
 16.400      2.08090e+02       3.09028e+01       6.78807e+00       1.64431e-04       9.82013e+01
 16.500      2.08141e+02       3.02607e+01       6.77215e+00       1.61828e-04       9.66703e+01
 16.600      2.08202e+02       2.96236e+01       6.73960e+00       1.59262e-04       9.51656e+01
 16.700      2.08274e+02       2.89916e+01       6.69139e+00       1.56732e-04       9.36862e+01
 16.800      2.08356e+02       2.83649e+01       6.62852e+00       1.54238e-04       9.22314e+01
 16.900      2.08446e+02       2.77437e+01       6.55195e+00       1.51779e-04       9.08002e+01
 17.000      2.08544e+02       2.71281e+01       6.46266e+00       1.49355e-04       8.93918e+01
 17.100      2.08649e+02       2.65181e+01       6.36164e+00       1.46964e-04       8.80054e+01
 17.200      2.08761e+02       2.59141e+01       6.24985e+00       1.44606e-04       8.66403e+01
 17.300      2.08880e+02       2.53161e+01       6.12829e+00       1.42282e-04       8.52957e+01
 17.400      2.09003e+02       2.47243e+01       5.99792e+00       1.39989e-04       8.39710e+01
 17.500      2.09132e+02       2.41387e+01       5.85973e+00       1.37728e-04       8.26655e+01
 17.600      2.09264e+02       2.35596e+01       5.71468e+00       1.35498e-04       8.13785e+01
 17.700      2.09400e+02       2.29871e+01       5.56377e+00       1.33298e-04       8.01094e+01
 17.800      2.09539e+02       2.24213e+01       5.40797e+00       1.31129e-04       7.88577e+01
 17.900      2.09679e+02       2.18624e+01       5.24825e+00       1.28989e-04       7.76229e+01
 18.000      2.09821e+02       2.13105e+01       5.08559e+00       1.26878e-04       7.64042e+01
 18.100      2.09964e+02       2.07658e+01       4.92098e+00       1.24796e-04       7.52013e+01
 18.200      2.10106e+02       2.02284e+01       4.75539e+00       1.22741e-04       7.40137e+01
 18.300      2.10248e+02       1.96984e+01       4.58980e+00       1.20715e-04       7.28409e+01
 18.400      2.10389e+02       1.91761e+01       4.42518e+00       1.18716e-04       7.16824e+01
 18.500      2.10527e+02       1.86614e+01       4.26252e+00       1.16743e-04       7.05379e+01
 18.600      2.10663e+02       1.81547e+01       4.10277e+00       1.14797e-04       6.94069e+01
 18.700      2.10796e+02       1.76560e+01       3.94636e+00       1.12878e-04       6.82894e+01
 18.800      2.10926e+02       1.71656e+01       3.79326e+00       1.10986e-04       6.71859e+01
 18.900      2.11052e+02       1.66837e+01       3.64340e+00       1.09121e-04       6.60965e+01
 19.000      2.11175e+02       1.62105e+01       3.49672e+00       1.07284e-04       6.50216e+01
 19.100      2.11294e+02       1.57463e+01       3.35316e+00       1.05475e-04       6.39615e+01
 19.200      2.11409e+02       1.52912e+01       3.21266e+00       1.03695e-04       6.29164e+01
 19.300      2.11521e+02       1.48455e+01       3.07516e+00       1.01944e-04       6.18865e+01
 19.400      2.11628e+02       1.44095e+01       2.94060e+00       1.00222e-04       6.08720e+01
 19.500      2.11732e+02       1.39832e+01       2.80892e+00       9.85289e-05       5.98731e+01
 19.600      2.11831e+02       1.35670e+01       2.68005e+00       9.68656e-05       5.88899e+01
 19.700      2.11926e+02       1.31611e+01       2.55394e+00       9.52318e-05       5.79226e+01
 19.800      2.12016e+02       1.27657e+01       2.43053e+00       9.36278e-05       5.69713e+01
 19.900      2.12102e+02       1.23809e+01       2.30974e+00       9.20535e-05       5.60359e+01
 20.000      2.12183e+02       1.20072e+01       2.19154e+00       9.05090e-05       5.51167e+01
 20.100      2.12259e+02       1.16445e+01       2.07584e+00       8.89942e-05       5.42137e+01
 20.200      2.12330e+02       1.12932e+01       1.96260e+00       8.75091e-05       5.33268e+01
 20.300      2.12395e+02       1.09536e+01       1.85175e+00       8.60538e-05       5.24562e+01
