# Data Source: NASA MERRA (version 2)
# Model Time = 2011-02-12 18:00:00
# Location = [  39.1026,  -84.5123 ]
# Fields = [ Z(km), T(K), U(m/s), V(m/s), R(g/cm3), P(mbar) ]
# Ground Height = 0.165
  0.000      2.78010e+02       5.14398e+00      -6.61362e-01       1.28299e-03       1.02369e+03
  0.100      2.77192e+02       5.52072e+00      -7.32192e-01       1.27097e-03       1.01111e+03
  0.200      2.76423e+02       6.02465e+00      -8.80560e-01       1.25888e-03       9.98712e+02
  0.300      2.75648e+02       6.51375e+00      -1.01988e+00       1.24694e-03       9.86463e+02
  0.400      2.74812e+02       6.84599e+00      -1.06358e+00       1.23535e-03       9.74335e+02
  0.500      2.73880e+02       6.94943e+00      -9.63185e-01       1.22425e-03       9.62307e+02
  0.600      2.72894e+02       6.98974e+00      -7.99456e-01       1.21345e-03       9.50383e+02
  0.700      2.71902e+02       7.14652e+00      -6.74926e-01       1.20274e-03       9.38567e+02
  0.800      2.70927e+02       7.43872e+00      -6.67338e-01       1.19201e-03       9.26859e+02
  0.900      2.69986e+02       7.84084e+00      -8.53353e-01       1.18119e-03       9.15254e+02
  1.000      2.69132e+02       8.32607e+00      -1.34698e+00       1.17005e-03       9.03755e+02
  1.100      2.68423e+02       8.86781e+00      -2.26115e+00       1.15835e-03       8.92364e+02
  1.200      2.67856e+02       9.44850e+00      -3.52573e+00       1.14613e-03       8.81083e+02
  1.300      2.67392e+02       1.00563e+01      -4.95393e+00       1.13357e-03       8.69917e+02
  1.400      2.66987e+02       1.06795e+01      -6.35711e+00       1.12087e-03       8.58870e+02
  1.500      2.66600e+02       1.13063e+01      -7.54690e+00       1.10822e-03       8.47945e+02
  1.600      2.66210e+02       1.19261e+01      -8.40674e+00       1.09571e-03       8.37146e+02
  1.700      2.65838e+02       1.25308e+01      -8.98522e+00       1.08325e-03       8.26473e+02
  1.800      2.65515e+02       1.31124e+01      -9.35413e+00       1.07074e-03       8.15929e+02
  1.900      2.65267e+02       1.36632e+01      -9.58524e+00       1.05805e-03       8.05515e+02
  2.000      2.65124e+02       1.41755e+01      -9.74912e+00       1.04511e-03       7.95231e+02
  2.100      2.65075e+02       1.46465e+01      -9.88374e+00       1.03196e-03       7.85077e+02
  2.200      2.65070e+02       1.50785e+01      -9.99137e+00       1.01879e-03       7.75049e+02
  2.300      2.65057e+02       1.54741e+01      -1.00725e+01       1.00583e-03       7.65144e+02
  2.400      2.64981e+02       1.58361e+01      -1.01275e+01       9.93244e-04       7.55359e+02
  2.500      2.64793e+02       1.61673e+01      -1.01571e+01       9.81226e-04       7.45690e+02
  2.600      2.64476e+02       1.64755e+01      -1.01680e+01       9.69813e-04       7.36134e+02
  2.700      2.64055e+02       1.67745e+01      -1.01740e+01       9.58897e-04       7.26688e+02
  2.800      2.63556e+02       1.70787e+01      -1.01891e+01       9.48366e-04       7.17350e+02
  2.900      2.63006e+02       1.74020e+01      -1.02275e+01       9.38115e-04       7.08115e+02
  3.000      2.62432e+02       1.77586e+01      -1.03032e+01       9.28040e-04       6.98982e+02
  3.100      2.61855e+02       1.81565e+01      -1.04246e+01       9.18064e-04       6.89947e+02
  3.200      2.61278e+02       1.85855e+01      -1.05831e+01       9.08174e-04       6.81011e+02
  3.300      2.60702e+02       1.90325e+01      -1.07672e+01       8.98368e-04       6.72171e+02
  3.400      2.60126e+02       1.94843e+01      -1.09653e+01       8.88645e-04       6.63428e+02
  3.500      2.59552e+02       1.99275e+01      -1.11660e+01       8.79002e-04       6.54780e+02
  3.600      2.58979e+02       2.03492e+01      -1.13578e+01       8.69439e-04       6.46227e+02
  3.700      2.58406e+02       2.07409e+01      -1.15352e+01       8.59960e-04       6.37767e+02
  3.800      2.57829e+02       2.10995e+01      -1.16988e+01       8.50577e-04       6.29400e+02
  3.900      2.57244e+02       2.14222e+01      -1.18498e+01       8.41301e-04       6.21124e+02
  4.000      2.56647e+02       2.17062e+01      -1.19895e+01       8.32145e-04       6.12938e+02
  4.100      2.56034e+02       2.19488e+01      -1.21189e+01       8.23118e-04       6.04841e+02
  4.200      2.55400e+02       2.21474e+01      -1.22392e+01       8.14232e-04       5.96832e+02
  4.300      2.54746e+02       2.23040e+01      -1.23512e+01       8.05487e-04       5.88909e+02
  4.400      2.54073e+02       2.24273e+01      -1.24553e+01       7.96873e-04       5.81072e+02
  4.500      2.53385e+02       2.25260e+01      -1.25519e+01       7.88378e-04       5.73319e+02
  4.600      2.52683e+02       2.26093e+01      -1.26412e+01       7.79991e-04       5.65649e+02
  4.700      2.51970e+02       2.26859e+01      -1.27236e+01       7.71703e-04       5.58061e+02
  4.800      2.51251e+02       2.27648e+01      -1.27995e+01       7.63503e-04       5.50553e+02
  4.900      2.50525e+02       2.28535e+01      -1.28699e+01       7.55381e-04       5.43125e+02
  5.000      2.49796e+02       2.29527e+01      -1.29392e+01       7.47336e-04       5.35777e+02
  5.100      2.49063e+02       2.30608e+01      -1.30132e+01       7.39365e-04       5.28507e+02
  5.200      2.48327e+02       2.31761e+01      -1.30975e+01       7.31465e-04       5.21315e+02
  5.300      2.47589e+02       2.32971e+01      -1.31976e+01       7.23635e-04       5.14201e+02
  5.400      2.46848e+02       2.34222e+01      -1.33192e+01       7.15874e-04       5.07164e+02
  5.500      2.46106e+02       2.35498e+01      -1.34678e+01       7.08180e-04       5.00204e+02
  5.600      2.45363e+02       2.36794e+01      -1.36471e+01       7.00550e-04       4.93321e+02
  5.700      2.44618e+02       2.38151e+01      -1.38507e+01       6.92983e-04       4.86512e+02
  5.800      2.43874e+02       2.39624e+01      -1.40701e+01       6.85476e-04       4.79776e+02
  5.900      2.43128e+02       2.41266e+01      -1.42966e+01       6.78027e-04       4.73112e+02
  6.000      2.42382e+02       2.43132e+01      -1.45215e+01       6.70634e-04       4.66517e+02
  6.100      2.41635e+02       2.45277e+01      -1.47360e+01       6.63295e-04       4.59991e+02
  6.200      2.40888e+02       2.47753e+01      -1.49315e+01       6.56008e-04       4.53531e+02
  6.300      2.40141e+02       2.50614e+01      -1.50995e+01       6.48770e-04       4.47136e+02
  6.400      2.39394e+02       2.53860e+01      -1.52354e+01       6.41584e-04       4.40808e+02
  6.500      2.38648e+02       2.57430e+01      -1.53395e+01       6.34453e-04       4.34549e+02
  6.600      2.37902e+02       2.61261e+01      -1.54122e+01       6.27381e-04       4.28363e+02
  6.700      2.37158e+02       2.65291e+01      -1.54539e+01       6.20373e-04       4.22252e+02
  6.800      2.36415e+02       2.69456e+01      -1.54650e+01       6.13432e-04       4.16220e+02
  6.900      2.35674e+02       2.73692e+01      -1.54461e+01       6.06561e-04       4.10269e+02
  7.000      2.34936e+02       2.77937e+01      -1.53976e+01       5.99765e-04       4.04401e+02
  7.100      2.34201e+02       2.82126e+01      -1.53198e+01       5.93045e-04       3.98619e+02
  7.200      2.33467e+02       2.86190e+01      -1.52138e+01       5.86403e-04       3.92920e+02
  7.300      2.32731e+02       2.90041e+01      -1.50815e+01       5.79832e-04       3.87292e+02
  7.400      2.31988e+02       2.93590e+01      -1.49249e+01       5.73325e-04       3.81723e+02
  7.500      2.31234e+02       2.96747e+01      -1.47461e+01       5.66878e-04       3.76203e+02
  7.600      2.30463e+02       2.99425e+01      -1.45471e+01       5.60483e-04       3.70720e+02
  7.700      2.29672e+02       3.01533e+01      -1.43301e+01       5.54137e-04       3.65264e+02
  7.800      2.28856e+02       3.02984e+01      -1.40969e+01       5.47833e-04       3.59826e+02
  7.900      2.28010e+02       3.03688e+01      -1.38497e+01       5.41569e-04       3.54397e+02
  8.000      2.27131e+02       3.03556e+01      -1.35906e+01       5.35340e-04       3.48969e+02
  8.100      2.26217e+02       3.02570e+01      -1.33224e+01       5.29148e-04       3.43546e+02
  8.200      2.25279e+02       3.00874e+01      -1.30496e+01       5.23016e-04       3.38156e+02
  8.300      2.24329e+02       2.98634e+01      -1.27769e+01       5.16961e-04       3.32831e+02
  8.400      2.23377e+02       2.96016e+01      -1.25093e+01       5.11004e-04       3.27601e+02
  8.500      2.22437e+02       2.93186e+01      -1.22515e+01       5.05163e-04       3.22492e+02
  8.600      2.21518e+02       2.90311e+01      -1.20083e+01       4.99453e-04       3.17530e+02
  8.700      2.20633e+02       2.87555e+01      -1.17845e+01       4.93891e-04       3.12739e+02
  8.800      2.19793e+02       2.85087e+01      -1.15849e+01       4.88490e-04       3.08142e+02
  8.900      2.19009e+02       2.83070e+01      -1.14143e+01       4.83263e-04       3.03759e+02
  9.000      2.18294e+02       2.81673e+01      -1.12775e+01       4.78224e-04       2.99609e+02
  9.100      2.17656e+02       2.81010e+01      -1.11772e+01       4.73373e-04       2.95703e+02
  9.200      2.17093e+02       2.81043e+01      -1.11097e+01       4.68683e-04       2.92016e+02
  9.300      2.16604e+02       2.81708e+01      -1.10702e+01       4.64122e-04       2.88524e+02
  9.400      2.16187e+02       2.82939e+01      -1.10537e+01       4.59661e-04       2.85199e+02
  9.500      2.15838e+02       2.84670e+01      -1.10556e+01       4.55270e-04       2.82019e+02
  9.600      2.15556e+02       2.86836e+01      -1.10708e+01       4.50921e-04       2.78960e+02
  9.700      2.15338e+02       2.89371e+01      -1.10946e+01       4.46589e-04       2.76001e+02
  9.800      2.15182e+02       2.92210e+01      -1.11221e+01       4.42247e-04       2.73119e+02
  9.900      2.15085e+02       2.95287e+01      -1.11484e+01       4.37872e-04       2.70296e+02
 10.000      2.15045e+02       2.98536e+01      -1.11688e+01       4.33441e-04       2.67511e+02
 10.100      2.15060e+02       3.01893e+01      -1.11783e+01       4.28931e-04       2.64746e+02
 10.200      2.15127e+02       3.05291e+01      -1.11722e+01       4.24321e-04       2.61983e+02
 10.300      2.15245e+02       3.08664e+01      -1.11455e+01       4.19593e-04       2.59205e+02
 10.400      2.15410e+02       3.11949e+01      -1.10934e+01       4.14727e-04       2.56395e+02
 10.500      2.15620e+02       3.15078e+01      -1.10110e+01       4.09707e-04       2.53538e+02
 10.600      2.15873e+02       3.17986e+01      -1.08936e+01       4.04515e-04       2.50619e+02
 10.700      2.16166e+02       3.20616e+01      -1.07369e+01       3.99142e-04       2.47626e+02
 10.800      2.16494e+02       3.22967e+01      -1.05426e+01       3.93600e-04       2.44558e+02
 10.900      2.16850e+02       3.25066e+01      -1.03148e+01       3.87910e-04       2.41420e+02
 11.000      2.17229e+02       3.26940e+01      -1.00575e+01       3.82095e-04       2.38216e+02
 11.100      2.17623e+02       3.28617e+01      -9.77493e+00       3.76176e-04       2.34952e+02
 11.200      2.18027e+02       3.30121e+01      -9.47123e+00       3.70173e-04       2.31631e+02
 11.300      2.18434e+02       3.31482e+01      -9.15053e+00       3.64107e-04       2.28260e+02
 11.400      2.18837e+02       3.32725e+01      -8.81696e+00       3.57994e-04       2.24843e+02
 11.500      2.19231e+02       3.33877e+01      -8.47464e+00       3.51853e-04       2.21383e+02
 11.600      2.19608e+02       3.34966e+01      -8.12773e+00       3.45701e-04       2.17886e+02
 11.700      2.19962e+02       3.36017e+01      -7.78036e+00       3.39553e-04       2.14357e+02
 11.800      2.20288e+02       3.37059e+01      -7.43666e+00       3.33423e-04       2.10799e+02
 11.900      2.20578e+02       3.38117e+01      -7.10078e+00       3.27326e-04       2.07217e+02
 12.000      2.20826e+02       3.39219e+01      -6.77683e+00       3.21275e-04       2.03615e+02
 12.100      2.21026e+02       3.40392e+01      -6.46896e+00       3.15281e-04       1.99997e+02
 12.200      2.21173e+02       3.41654e+01      -6.18041e+00       3.09355e-04       1.96369e+02
 12.300      2.21270e+02       3.42999e+01      -5.91079e+00       3.03507e-04       1.92740e+02
 12.400      2.21318e+02       3.44409e+01      -5.65884e+00       2.97745e-04       1.89123e+02
 12.500      2.21323e+02       3.45869e+01      -5.42327e+00       2.92076e-04       1.85526e+02
 12.600      2.21288e+02       3.47363e+01      -5.20282e+00       2.86507e-04       1.81959e+02
 12.700      2.21216e+02       3.48876e+01      -4.99621e+00       2.81044e-04       1.78432e+02
 12.800      2.21111e+02       3.50392e+01      -4.80216e+00       2.75694e-04       1.74952e+02
 12.900      2.20976e+02       3.51894e+01      -4.61941e+00       2.70461e-04       1.71527e+02
 13.000      2.20816e+02       3.53368e+01      -4.44667e+00       2.65351e-04       1.68164e+02
 13.100      2.20634e+02       3.54796e+01      -4.28266e+00       2.60367e-04       1.64869e+02
 13.200      2.20433e+02       3.56165e+01      -4.12613e+00       2.55513e-04       1.61648e+02
 13.300      2.20216e+02       3.57457e+01      -3.97579e+00       2.50793e-04       1.58507e+02
 13.400      2.19989e+02       3.58657e+01      -3.83036e+00       2.46209e-04       1.55449e+02
 13.500      2.19754e+02       3.59750e+01      -3.68858e+00       2.41765e-04       1.52479e+02
 13.600      2.19514e+02       3.60719e+01      -3.54917e+00       2.37461e-04       1.49602e+02
 13.700      2.19273e+02       3.61553e+01      -3.41125e+00       2.33299e-04       1.46818e+02
 13.800      2.19031e+02       3.62254e+01      -3.27499e+00       2.29270e-04       1.44124e+02
 13.900      2.18788e+02       3.62825e+01      -3.14073e+00       2.25369e-04       1.41514e+02
 14.000      2.18545e+02       3.63270e+01      -3.00881e+00       2.21589e-04       1.38986e+02
 14.100      2.18301e+02       3.63591e+01      -2.87958e+00       2.17924e-04       1.36535e+02
 14.200      2.18058e+02       3.63792e+01      -2.75338e+00       2.14366e-04       1.34156e+02
 14.300      2.17814e+02       3.63877e+01      -2.63055e+00       2.10911e-04       1.31846e+02
 14.400      2.17571e+02       3.63848e+01      -2.51142e+00       2.07554e-04       1.29603e+02
 14.500      2.17328e+02       3.63709e+01      -2.39634e+00       2.04288e-04       1.27421e+02
 14.600      2.17087e+02       3.63464e+01      -2.28565e+00       2.01109e-04       1.25299e+02
 14.700      2.16845e+02       3.63115e+01      -2.17969e+00       1.98013e-04       1.23232e+02
 14.800      2.16605e+02       3.62666e+01      -2.07881e+00       1.94994e-04       1.21219e+02
 14.900      2.16367e+02       3.62121e+01      -1.98334e+00       1.92048e-04       1.19257e+02
 15.000      2.16130e+02       3.61483e+01      -1.89362e+00       1.89172e-04       1.17342e+02
 15.100      2.15894e+02       3.60754e+01      -1.81000e+00       1.86362e-04       1.15473e+02
 15.200      2.15661e+02       3.59939e+01      -1.73282e+00       1.83613e-04       1.13646e+02
 15.300      2.15429e+02       3.59040e+01      -1.66242e+00       1.80922e-04       1.11861e+02
 15.400      2.15200e+02       3.58062e+01      -1.59913e+00       1.78286e-04       1.10114e+02
 15.500      2.14974e+02       3.57007e+01      -1.54331e+00       1.75701e-04       1.08403e+02
 15.600      2.14750e+02       3.55878e+01      -1.49529e+00       1.73164e-04       1.06727e+02
 15.700      2.14529e+02       3.54680e+01      -1.45540e+00       1.70673e-04       1.05083e+02
 15.800      2.14311e+02       3.53415e+01      -1.42401e+00       1.68225e-04       1.03471e+02
 15.900      2.14097e+02       3.52087e+01      -1.40144e+00       1.65816e-04       1.01887e+02
 16.000      2.13886e+02       3.50699e+01      -1.38803e+00       1.63445e-04       1.00331e+02
 16.100      2.13679e+02       3.49253e+01      -1.38406e+00       1.61108e-04       9.88007e+01
 16.200      2.13476e+02       3.47751e+01      -1.38923e+00       1.58804e-04       9.72955e+01
 16.300      2.13277e+02       3.46191e+01      -1.40298e+00       1.56532e-04       9.58142e+01
 16.400      2.13083e+02       3.44571e+01      -1.42477e+00       1.54291e-04       9.43562e+01
 16.500      2.12894e+02       3.42891e+01      -1.45402e+00       1.52078e-04       9.29205e+01
 16.600      2.12710e+02       3.41148e+01      -1.49019e+00       1.49893e-04       9.15064e+01
 16.700      2.12532e+02       3.39343e+01      -1.53271e+00       1.47735e-04       9.01132e+01
 16.800      2.12360e+02       3.37473e+01      -1.58103e+00       1.45601e-04       8.87402e+01
 16.900      2.12195e+02       3.35537e+01      -1.63459e+00       1.43492e-04       8.73866e+01
 17.000      2.12036e+02       3.33534e+01      -1.69284e+00       1.41406e-04       8.60518e+01
 17.100      2.11884e+02       3.31464e+01      -1.75521e+00       1.39343e-04       8.47352e+01
 17.200      2.11739e+02       3.29323e+01      -1.82115e+00       1.37300e-04       8.34361e+01
 17.300      2.11602e+02       3.27112e+01      -1.89010e+00       1.35278e-04       8.21542e+01
 17.400      2.11474e+02       3.24829e+01      -1.96151e+00       1.33275e-04       8.08886e+01
 17.500      2.11353e+02       3.22473e+01      -2.03481e+00       1.31291e-04       7.96390e+01
 17.600      2.11241e+02       3.20042e+01      -2.10946e+00       1.29325e-04       7.84048e+01
 17.700      2.11139e+02       3.17536e+01      -2.18488e+00       1.27376e-04       7.71856e+01
 17.800      2.11045e+02       3.14952e+01      -2.26053e+00       1.25443e-04       7.59809e+01
 17.900      2.10961e+02       3.12290e+01      -2.33585e+00       1.23527e-04       7.47903e+01
 18.000      2.10888e+02       3.09549e+01      -2.41027e+00       1.21625e-04       7.36132e+01
 18.100      2.10824e+02       3.06727e+01      -2.48325e+00       1.19738e-04       7.24495e+01
 18.200      2.10771e+02       3.03823e+01      -2.55423e+00       1.17866e-04       7.12986e+01
 18.300      2.10730e+02       3.00836e+01      -2.62264e+00       1.16007e-04       7.01603e+01
 18.400      2.10699e+02       2.97765e+01      -2.68794e+00       1.14162e-04       6.90343e+01
 18.500      2.10679e+02       2.94616e+01      -2.74967e+00       1.12331e-04       6.79208e+01
 18.600      2.10670e+02       2.91398e+01      -2.80739e+00       1.10516e-04       6.68204e+01
 18.700      2.10670e+02       2.88120e+01      -2.86065e+00       1.08718e-04       6.57335e+01
 18.800      2.10679e+02       2.84789e+01      -2.90901e+00       1.06939e-04       6.46604e+01
 18.900      2.10696e+02       2.81413e+01      -2.95205e+00       1.05179e-04       6.36017e+01
 19.000      2.10721e+02       2.78002e+01      -2.98931e+00       1.03440e-04       6.25575e+01
 19.100      2.10753e+02       2.74562e+01      -3.02036e+00       1.01723e-04       6.15283e+01
 19.200      2.10791e+02       2.71104e+01      -3.04476e+00       1.00029e-04       6.05142e+01
 19.300      2.10834e+02       2.67635e+01      -3.06208e+00       9.83576e-05       5.95157e+01
 19.400      2.10883e+02       2.64163e+01      -3.07186e+00       9.67108e-05       5.85328e+01
 19.500      2.10937e+02       2.60696e+01      -3.07367e+00       9.50890e-05       5.75657e+01
 19.600      2.10994e+02       2.57244e+01      -3.06708e+00       9.34928e-05       5.66147e+01
 19.700      2.11054e+02       2.53814e+01      -3.05164e+00       9.19229e-05       5.56800e+01
 19.800      2.11117e+02       2.50415e+01      -3.02692e+00       9.03797e-05       5.47615e+01
 19.900      2.11181e+02       2.47055e+01      -2.99247e+00       8.88638e-05       5.38595e+01
 20.000      2.11247e+02       2.43742e+01      -2.94786e+00       8.73755e-05       5.29739e+01
 20.100      2.11313e+02       2.40484e+01      -2.89264e+00       8.59152e-05       5.21049e+01
 20.200      2.11380e+02       2.37291e+01      -2.82638e+00       8.44833e-05       5.12526e+01
 20.300      2.11445e+02       2.34170e+01      -2.74864e+00       8.30800e-05       5.04169e+01
