# Data Source: NASA GEOS5 Near-Real-Time
# Model Time = 2010-04-11 18:00:00
# Location = [  39.7393, -104.9900 ]
# Fields = [ Z(km), T(K), U(m/s), V(m/s), R(g/cm3), P(mbar) ]
# Ground Height = 1.589
  0.000      2.99078e+02      -1.23058e+00       1.02745e+00       1.18489e-03       1.01705e+03
  0.100      2.98430e+02      -1.27795e+00       1.03742e+00       1.17356e-03       1.00515e+03
  0.200      2.97784e+02      -1.33207e+00       1.04535e+00       1.16234e-03       9.93378e+02
  0.300      2.97135e+02      -1.37743e+00       1.05593e+00       1.15124e-03       9.81748e+02
  0.400      2.96478e+02      -1.39880e+00       1.07352e+00       1.14028e-03       9.70256e+02
  0.500      2.95820e+02      -1.39037e+00       1.09027e+00       1.12944e-03       9.58896e+02
  0.600      2.95175e+02      -1.35818e+00       1.08318e+00       1.11864e-03       9.47658e+02
  0.700      2.94546e+02      -1.31835e+00       1.04584e+00       1.10787e-03       9.36536e+02
  0.800      2.93902e+02      -1.30719e+00       1.01006e+00       1.09726e-03       9.25535e+02
  0.900      2.93216e+02      -1.35017e+00       1.00588e+00       1.08690e-03       9.14660e+02
  1.000      2.92521e+02      -1.41032e+00       1.03195e+00       1.07668e-03       9.03906e+02
  1.100      2.91859e+02      -1.43630e+00       1.07696e+00       1.06642e-03       8.93270e+02
  1.200      2.91236e+02      -1.42588e+00       1.11811e+00       1.05611e-03       8.82749e+02
  1.300      2.90635e+02      -1.41121e+00       1.12489e+00       1.04583e-03       8.72347e+02
  1.400      2.90027e+02      -1.40946e+00       1.10153e+00       1.03566e-03       8.62064e+02
  1.500      2.89371e+02      -1.40781e+00       1.11905e+00       1.02577e-03       8.51899e+02
  1.600      2.88631e+02      -1.38983e+00       1.24485e+00       1.01627e-03       8.41850e+02
  1.700      2.87815e+02      -1.33753e+00       1.46713e+00       1.00712e-03       8.31909e+02
  1.800      2.86952e+02      -1.23224e+00       1.73982e+00       9.98193e-04       8.22065e+02
  1.900      2.86077e+02      -1.05764e+00       2.02220e+00       9.89369e-04       8.12312e+02
  2.000      2.85229e+02      -8.01352e-01       2.28287e+00       9.80509e-04       8.02652e+02
  2.100      2.84447e+02      -4.55181e-01       2.49515e+00       9.71484e-04       7.93084e+02
  2.200      2.83743e+02      -4.68921e-02       2.66863e+00       9.62262e-04       7.83611e+02
  2.300      2.83113e+02       3.75845e-01       2.83293e+00       9.52865e-04       7.74235e+02
  2.400      2.82544e+02       7.70011e-01       3.00924e+00       9.43341e-04       7.64957e+02
  2.500      2.81996e+02       1.10779e+00       3.19170e+00       9.33829e-04       7.55774e+02
  2.600      2.81420e+02       1.36471e+00       3.36916e+00       9.24481e-04       7.46682e+02
  2.700      2.80792e+02       1.53516e+00       3.53073e+00       9.15380e-04       7.37680e+02
  2.800      2.80112e+02       1.64022e+00       3.66591e+00       9.06515e-04       7.28767e+02
  2.900      2.79386e+02       1.70268e+00       3.76435e+00       8.97870e-04       7.19945e+02
  3.000      2.78619e+02       1.73946e+00       3.81771e+00       8.89417e-04       7.11211e+02
  3.100      2.77820e+02       1.76268e+00       3.81929e+00       8.81122e-04       7.02558e+02
  3.200      2.76999e+02       1.78512e+00       3.76350e+00       8.72950e-04       6.93983e+02
  3.300      2.76166e+02       1.82818e+00       3.65555e+00       8.64859e-04       6.85485e+02
  3.400      2.75338e+02       1.91826e+00       3.50696e+00       8.56807e-04       6.77066e+02
  3.500      2.74527e+02       2.07951e+00       3.32962e+00       8.48755e-04       6.68729e+02
  3.600      2.73731e+02       2.31618e+00       3.13798e+00       8.40713e-04       6.60471e+02
  3.700      2.72938e+02       2.62234e+00       2.94773e+00       8.32714e-04       6.52292e+02
  3.800      2.72138e+02       2.99150e+00       2.77251e+00       8.24785e-04       6.44188e+02
  3.900      2.71329e+02       3.41245e+00       2.60562e+00       8.16937e-04       6.36160e+02
  4.000      2.70510e+02       3.87129e+00       2.42892e+00       8.09166e-04       6.28208e+02
  4.100      2.69685e+02       4.35493e+00       2.22530e+00       8.01468e-04       6.20332e+02
  4.200      2.68857e+02       4.86242e+00       1.99492e+00       7.93828e-04       6.12533e+02
  4.300      2.68035e+02       5.40236e+00       1.75148e+00       7.86220e-04       6.04808e+02
  4.400      2.67226e+02       5.98327e+00       1.50890e+00       7.78622e-04       5.97156e+02
  4.500      2.66432e+02       6.59971e+00       1.27388e+00       7.71029e-04       5.89575e+02
  4.600      2.65646e+02       7.22668e+00       1.04310e+00       7.63465e-04       5.82068e+02
  4.700      2.64860e+02       7.83777e+00       8.12474e-01       7.55954e-04       5.74637e+02
  4.800      2.64069e+02       8.40705e+00       5.80259e-01       7.48513e-04       5.67283e+02
  4.900      2.63276e+02       8.91037e+00       3.52746e-01       7.41135e-04       5.60003e+02
  5.000      2.62483e+02       9.32396e+00       1.37959e-01       7.33807e-04       5.52795e+02
  5.100      2.61692e+02       9.62560e+00      -5.63618e-02       7.26517e-04       5.45656e+02
  5.200      2.60901e+02       9.81536e+00      -2.26542e-01       7.19278e-04       5.38585e+02
  5.300      2.60100e+02       9.91001e+00      -3.71961e-01       7.12113e-04       5.31583e+02
  5.400      2.59281e+02       9.92676e+00      -4.92070e-01       7.05048e-04       5.24652e+02
  5.500      2.58439e+02       9.88501e+00      -5.80965e-01       6.98096e-04       5.17792e+02
  5.600      2.57582e+02       9.81178e+00      -6.14315e-01       6.91233e-04       5.11001e+02
  5.700      2.56721e+02       9.73571e+00      -5.63834e-01       6.84427e-04       5.04279e+02
  5.800      2.55866e+02       9.68526e+00      -4.01644e-01       6.77649e-04       4.97622e+02
  5.900      2.55022e+02       9.67842e+00      -1.20721e-01       6.70887e-04       4.91030e+02
  6.000      2.54184e+02       9.71808e+00       2.55730e-01       6.64152e-04       4.84504e+02
  6.100      2.53347e+02       9.80591e+00       7.02133e-01       6.57459e-04       4.78042e+02
  6.200      2.52506e+02       9.94311e+00       1.19303e+00       6.50821e-04       4.71645e+02
  6.300      2.51664e+02       1.01211e+01       1.70549e+00       6.44234e-04       4.65314e+02
  6.400      2.50827e+02       1.03221e+01       2.21893e+00       6.37678e-04       4.59048e+02
  6.500      2.50005e+02       1.05281e+01       2.71285e+00       6.31134e-04       4.52847e+02
  6.600      2.49204e+02       1.07216e+01       3.16757e+00       6.24584e-04       4.46711e+02
  6.700      2.48423e+02       1.08962e+01       3.57924e+00       6.18032e-04       4.40641e+02
  6.800      2.47652e+02       1.10562e+01       3.95840e+00       6.11503e-04       4.34634e+02
  6.900      2.46882e+02       1.12059e+01       4.31607e+00       6.05022e-04       4.28689e+02
  7.000      2.46101e+02       1.13499e+01       4.66303e+00       5.98613e-04       4.22805e+02
  7.100      2.45305e+02       1.14931e+01       4.99834e+00       5.92283e-04       4.16982e+02
  7.200      2.44500e+02       1.16421e+01       5.30477e+00       5.86023e-04       4.11220e+02
  7.300      2.43690e+02       1.18031e+01       5.56386e+00       5.79820e-04       4.05520e+02
  7.400      2.42880e+02       1.19824e+01       5.75719e+00       5.73663e-04       3.99881e+02
  7.500      2.42075e+02       1.21843e+01       5.87106e+00       5.67544e-04       3.94304e+02
  7.600      2.41274e+02       1.24048e+01       5.90968e+00       5.61462e-04       3.88789e+02
  7.700      2.40476e+02       1.26382e+01       5.88146e+00       5.55421e-04       3.83333e+02
  7.800      2.39679e+02       1.28788e+01       5.79480e+00       5.49422e-04       3.77935e+02
  7.900      2.38881e+02       1.31205e+01       5.65836e+00       5.43467e-04       3.72595e+02
  8.000      2.38082e+02       1.33527e+01       5.48836e+00       5.37562e-04       3.67313e+02
  8.100      2.37277e+02       1.35595e+01       5.30963e+00       5.31710e-04       3.62086e+02
  8.200      2.36466e+02       1.37246e+01       5.14742e+00       5.25917e-04       3.56917e+02
  8.300      2.35645e+02       1.38316e+01       5.02703e+00       5.20188e-04       3.51803e+02
  8.400      2.34812e+02       1.38661e+01       4.97131e+00       5.14528e-04       3.46746e+02
  8.500      2.33969e+02       1.38345e+01       4.97287e+00       5.08934e-04       3.41744e+02
  8.600      2.33117e+02       1.37578e+01       5.00358e+00       5.03398e-04       3.36797e+02
  8.700      2.32261e+02       1.36574e+01       5.03492e+00       4.97914e-04       3.31904e+02
  8.800      2.31403e+02       1.35545e+01       5.03836e+00       4.92473e-04       3.27065e+02
  8.900      2.30546e+02       1.34696e+01       4.98655e+00       4.87071e-04       3.22279e+02
  9.000      2.29690e+02       1.34114e+01       4.87189e+00       4.81705e-04       3.17545e+02
  9.100      2.28833e+02       1.33783e+01       4.70324e+00       4.76380e-04       3.12863e+02
  9.200      2.27974e+02       1.33685e+01       4.48995e+00       4.71100e-04       3.08234e+02
  9.300      2.27110e+02       1.33802e+01       4.24139e+00       4.65869e-04       3.03656e+02
  9.400      2.26239e+02       1.34115e+01       3.96692e+00       4.60691e-04       2.99129e+02
  9.500      2.25361e+02       1.34599e+01       3.68002e+00       4.55565e-04       2.94654e+02
  9.600      2.24482e+02       1.35206e+01       3.40345e+00       4.50482e-04       2.90228e+02
  9.700      2.23605e+02       1.35885e+01       3.16127e+00       4.45430e-04       2.85853e+02
  9.800      2.22736e+02       1.36587e+01       2.97753e+00       4.40401e-04       2.81527e+02
  9.900      2.21881e+02       1.37261e+01       2.87629e+00       4.35384e-04       2.77251e+02
 10.000      2.21043e+02       1.37861e+01       2.88073e+00       4.30369e-04       2.73024e+02
 10.100      2.20223e+02       1.38427e+01       2.99103e+00       4.25360e-04       2.68844e+02
 10.200      2.19413e+02       1.39093e+01       3.18235e+00       4.20370e-04       2.64714e+02
 10.300      2.18606e+02       1.40000e+01       3.42863e+00       4.15413e-04       2.60630e+02
 10.400      2.17795e+02       1.41286e+01       3.70380e+00       4.10504e-04       2.56595e+02
 10.500      2.16972e+02       1.43092e+01       3.98179e+00       4.05657e-04       2.52606e+02
 10.600      2.16130e+02       1.45554e+01       4.23683e+00       4.00883e-04       2.48665e+02
 10.700      2.15269e+02       1.48739e+01       4.46085e+00       3.96181e-04       2.44770e+02
 10.800      2.14402e+02       1.52601e+01       4.67271e+00       3.91529e-04       2.40921e+02
 10.900      2.13541e+02       1.57085e+01       4.89353e+00       3.86904e-04       2.37119e+02
 11.000      2.12700e+02       1.62136e+01       5.14442e+00       3.82283e-04       2.33364e+02
 11.100      2.11891e+02       1.67699e+01       5.44650e+00       3.77643e-04       2.29655e+02
 11.200      2.11127e+02       1.73718e+01       5.82087e+00       3.72964e-04       2.25992e+02
 11.300      2.10421e+02       1.80132e+01       6.28375e+00       3.68226e-04       2.22375e+02
 11.400      2.09781e+02       1.86804e+01       6.80508e+00       3.63420e-04       2.18805e+02
 11.500      2.09212e+02       1.93560e+01       7.32947e+00       3.58543e-04       2.15283e+02
 11.600      2.08718e+02       2.00222e+01       7.80125e+00       3.53591e-04       2.11808e+02
 11.700      2.08304e+02       2.06616e+01       8.16475e+00       3.48561e-04       2.08381e+02
 11.800      2.07976e+02       2.12565e+01       8.36432e+00       3.43453e-04       2.05004e+02
 11.900      2.07738e+02       2.17894e+01       8.34430e+00       3.38263e-04       2.01675e+02
 12.000      2.07595e+02       2.22430e+01       8.05150e+00       3.32992e-04       1.98396e+02
 12.100      2.07548e+02       2.26092e+01       7.49245e+00       3.27649e-04       1.95168e+02
 12.200      2.07590e+02       2.28890e+01       6.73480e+00       3.22249e-04       1.91991e+02
 12.300      2.07717e+02       2.30840e+01       5.84897e+00       3.16810e-04       1.88865e+02
 12.400      2.07923e+02       2.31958e+01       4.90539e+00       3.11347e-04       1.85793e+02
 12.500      2.08202e+02       2.32258e+01       3.97447e+00       3.05876e-04       1.82774e+02
 12.600      2.08550e+02       2.31756e+01       3.12663e+00       3.00412e-04       1.79808e+02
 12.700      2.08962e+02       2.30466e+01       2.43231e+00       2.94968e-04       1.76898e+02
 12.800      2.09430e+02       2.28406e+01       1.96123e+00       2.89556e-04       1.74042e+02
 12.900      2.09948e+02       2.25636e+01       1.74328e+00       2.84194e-04       1.71241e+02
 13.000      2.10500e+02       2.22288e+01       1.74731e+00       2.78900e-04       1.68493e+02
 13.100      2.11074e+02       2.18499e+01       1.93696e+00       2.73692e-04       1.65797e+02
 13.200      2.11653e+02       2.14408e+01       2.27590e+00       2.68588e-04       1.63152e+02
 13.300      2.12225e+02       2.10150e+01       2.72779e+00       2.63602e-04       1.60556e+02
 13.400      2.12774e+02       2.05865e+01       3.25628e+00       2.58750e-04       1.58008e+02
 13.500      2.13286e+02       2.01689e+01       3.82504e+00       2.54042e-04       1.55507e+02
 13.600      2.13747e+02       1.97760e+01       4.39771e+00       2.49491e-04       1.53051e+02
 13.700      2.14143e+02       1.94215e+01       4.93796e+00       2.45107e-04       1.50641e+02
 13.800      2.14461e+02       1.91178e+01       5.41218e+00       2.40897e-04       1.48273e+02
 13.900      2.14701e+02       1.88642e+01       5.81194e+00       2.36853e-04       1.45947e+02
 14.000      2.14873e+02       1.86531e+01       6.14255e+00       2.32956e-04       1.43660e+02
 14.100      2.14983e+02       1.84767e+01       6.40941e+00       2.29191e-04       1.41412e+02
 14.200      2.15042e+02       1.83272e+01       6.61792e+00       2.25543e-04       1.39199e+02
 14.300      2.15057e+02       1.81970e+01       6.77349e+00       2.21997e-04       1.37020e+02
 14.400      2.15036e+02       1.80783e+01       6.88154e+00       2.18540e-04       1.34873e+02
 14.500      2.14988e+02       1.79633e+01       6.94747e+00       2.15160e-04       1.32757e+02
 14.600      2.14922e+02       1.78444e+01       6.97670e+00       2.11843e-04       1.30670e+02
 14.700      2.14845e+02       1.77137e+01       6.97464e+00       2.08580e-04       1.28612e+02
 14.800      2.14767e+02       1.75635e+01       6.94669e+00       2.05359e-04       1.26579e+02
 14.900      2.14695e+02       1.73861e+01       6.89825e+00       2.02170e-04       1.24572e+02
 15.000      2.14635e+02       1.71770e+01       6.83373e+00       1.99008e-04       1.22589e+02
 15.100      2.14587e+02       1.69388e+01       6.75533e+00       1.95875e-04       1.20632e+02
 15.200      2.14550e+02       1.66749e+01       6.66501e+00       1.92774e-04       1.18702e+02
 15.300      2.14524e+02       1.63886e+01       6.56468e+00       1.89708e-04       1.16800e+02
 15.400      2.14507e+02       1.60835e+01       6.45630e+00       1.86680e-04       1.14927e+02
 15.500      2.14498e+02       1.57629e+01       6.34180e+00       1.83693e-04       1.13083e+02
 15.600      2.14497e+02       1.54303e+01       6.22311e+00       1.80750e-04       1.11271e+02
 15.700      2.14502e+02       1.50891e+01       6.10219e+00       1.77851e-04       1.09489e+02
 15.800      2.14513e+02       1.47427e+01       5.98095e+00       1.75001e-04       1.07740e+02
 15.900      2.14529e+02       1.43945e+01       5.86135e+00       1.72200e-04       1.06023e+02
 16.000      2.14548e+02       1.40480e+01       5.74532e+00       1.69450e-04       1.04339e+02
 16.100      2.14571e+02       1.37066e+01       5.63480e+00       1.66753e-04       1.02690e+02
 16.200      2.14595e+02       1.33736e+01       5.53172e+00       1.64111e-04       1.01074e+02
 16.300      2.14620e+02       1.30526e+01       5.43802e+00       1.61524e-04       9.94925e+01
 16.400      2.14646e+02       1.27455e+01       5.35459e+00       1.58993e-04       9.79452e+01
 16.500      2.14673e+02       1.24520e+01       5.28075e+00       1.56515e-04       9.64304e+01
 16.600      2.14700e+02       1.21717e+01       5.21566e+00       1.54087e-04       9.49466e+01
 16.700      2.14728e+02       1.19042e+01       5.15847e+00       1.51707e-04       9.34922e+01
 16.800      2.14756e+02       1.16488e+01       5.10836e+00       1.49373e-04       9.20659e+01
 16.900      2.14785e+02       1.14053e+01       5.06448e+00       1.47082e-04       9.06662e+01
 17.000      2.14815e+02       1.11731e+01       5.02600e+00       1.44832e-04       8.92919e+01
 17.100      2.14846e+02       1.09518e+01       4.99207e+00       1.42621e-04       8.79417e+01
 17.200      2.14878e+02       1.07408e+01       4.96185e+00       1.40448e-04       8.66144e+01
 17.300      2.14912e+02       1.05399e+01       4.93452e+00       1.38310e-04       8.53090e+01
 17.400      2.14946e+02       1.03484e+01       4.90923e+00       1.36205e-04       8.40242e+01
 17.500      2.14981e+02       1.01659e+01       4.88514e+00       1.34132e-04       8.27590e+01
 17.600      2.15018e+02       9.99205e+00       4.86141e+00       1.32090e-04       8.15126e+01
 17.700      2.15056e+02       9.82626e+00       4.83721e+00       1.30076e-04       8.02839e+01
 17.800      2.15095e+02       9.66812e+00       4.81170e+00       1.28089e-04       7.90720e+01
 17.900      2.15136e+02       9.51717e+00       4.78403e+00       1.26127e-04       7.78760e+01
 18.000      2.15178e+02       9.37293e+00       4.75338e+00       1.24191e-04       7.66953e+01
 18.100      2.15222e+02       9.23496e+00       4.71890e+00       1.22277e-04       7.55289e+01
 18.200      2.15267e+02       9.10279e+00       4.67975e+00       1.20386e-04       7.43762e+01
 18.300      2.15314e+02       8.97595e+00       4.63510e+00       1.18515e-04       7.32364e+01
 18.400      2.15363e+02       8.85400e+00       4.58410e+00       1.16664e-04       7.21089e+01
 18.500      2.15414e+02       8.73646e+00       4.52592e+00       1.14832e-04       7.09931e+01
 18.600      2.15466e+02       8.62288e+00       4.45973e+00       1.13017e-04       6.98884e+01
 18.700      2.15521e+02       8.51283e+00       4.38498e+00       1.11220e-04       6.87945e+01
 18.800      2.15577e+02       8.40600e+00       4.30206e+00       1.09441e-04       6.77118e+01
 18.900      2.15634e+02       8.30210e+00       4.21150e+00       1.07681e-04       6.66408e+01
 19.000      2.15693e+02       8.20085e+00       4.11385e+00       1.05942e-04       6.55821e+01
 19.100      2.15753e+02       8.10194e+00       4.00966e+00       1.04223e-04       6.45362e+01
 19.200      2.15814e+02       8.00510e+00       3.89946e+00       1.02526e-04       6.35034e+01
 19.300      2.15875e+02       7.91003e+00       3.78381e+00       1.00852e-04       6.24842e+01
 19.400      2.15937e+02       7.81643e+00       3.66323e+00       9.92015e-05       6.14790e+01
 19.500      2.15998e+02       7.72403e+00       3.53827e+00       9.75746e-05       6.04880e+01
 19.600      2.16060e+02       7.63252e+00       3.40948e+00       9.59723e-05       5.95117e+01
 19.700      2.16122e+02       7.54162e+00       3.27741e+00       9.43950e-05       5.85503e+01
 19.800      2.16182e+02       7.45104e+00       3.14258e+00       9.28432e-05       5.76039e+01
 19.900      2.16242e+02       7.36048e+00       3.00555e+00       9.13173e-05       5.66729e+01
 20.000      2.16301e+02       7.26966e+00       2.86685e+00       8.98177e-05       5.57575e+01
 20.100      2.16359e+02       7.17829e+00       2.72704e+00       8.83447e-05       5.48578e+01
 20.200      2.16416e+02       7.08607e+00       2.58665e+00       8.68986e-05       5.39739e+01
 20.300      2.16471e+02       6.99272e+00       2.44622e+00       8.54798e-05       5.31061e+01
