# Data Source: NASA GEOS5 Near-Real-Time
# Model Time = 2010-08-05 18:00:00
# Location = [  39.7393, -104.9900 ]
# Fields = [ Z(km), T(K), U(m/s), V(m/s), R(g/cm3), P(mbar) ]
# Ground Height = 1.589
  0.000      3.07863e+02      -1.77330e+00      -2.97675e-02       1.15098e-03       1.01697e+03
  0.100      3.07258e+02      -1.81335e+00      -9.67050e-03       1.13978e-03       1.00509e+03
  0.200      3.06655e+02      -1.85486e+00       1.03416e-02       1.12867e-03       9.93345e+02
  0.300      3.06050e+02      -1.89444e+00       3.04654e-02       1.11770e-03       9.81744e+02
  0.400      3.05439e+02      -1.92865e+00       5.08052e-02       1.10688e-03       9.70301e+02
  0.500      3.04829e+02      -1.95333e+00       6.81377e-02       1.09619e-03       9.59014e+02
  0.600      3.04238e+02      -1.96343e+00       7.50667e-02       1.08556e-03       9.47869e+02
  0.700      3.03662e+02      -1.95707e+00       6.68992e-02       1.07498e-03       9.36855e+02
  0.800      3.03053e+02      -1.93981e+00       4.57142e-02       1.06464e-03       9.25979e+02
  0.900      3.02369e+02      -1.91839e+00       1.53293e-02       1.05468e-03       9.15248e+02
  1.000      3.01653e+02      -1.90046e+00      -1.62364e-02       1.04495e-03       9.04658e+02
  1.100      3.00972e+02      -1.89362e+00      -4.00339e-02       1.03521e-03       8.94201e+02
  1.200      3.00338e+02      -1.89936e+00      -5.50957e-02       1.02541e-03       8.83872e+02
  1.300      2.99721e+02      -1.91386e+00      -6.73491e-02       1.01566e-03       8.73671e+02
  1.400      2.99084e+02      -1.93315e+00      -8.29480e-02       1.00608e-03       8.63594e+02
  1.500      2.98395e+02      -1.95324e+00      -1.08046e-01       9.96783e-04       8.53639e+02
  1.600      2.97622e+02      -1.97020e+00      -1.48146e-01       9.87859e-04       8.43803e+02
  1.700      2.96770e+02      -1.98070e+00      -2.00128e-01       9.79281e-04       8.34083e+02
  1.800      2.95873e+02      -1.98182e+00      -2.54763e-01       9.70929e-04       8.24470e+02
  1.900      2.94965e+02      -1.97067e+00      -3.02689e-01       9.62684e-04       8.14959e+02
  2.000      2.94078e+02      -1.94435e+00      -3.34550e-01       9.54430e-04       8.05544e+02
  2.100      2.93247e+02      -1.89999e+00      -3.41210e-01       9.46056e-04       7.96218e+02
  2.200      2.92480e+02      -1.83580e+00      -3.22002e-01       9.37531e-04       7.86980e+02
  2.300      2.91759e+02      -1.75131e+00      -2.87062e-01       9.28920e-04       7.77830e+02
  2.400      2.91063e+02      -1.64620e+00      -2.47228e-01       9.20298e-04       7.68770e+02
  2.500      2.90370e+02      -1.52009e+00      -2.13341e-01       9.11732e-04       7.59802e+02
  2.600      2.89659e+02      -1.37264e+00      -1.96239e-01       9.03292e-04       7.50926e+02
  2.700      2.88913e+02      -1.20425e+00      -2.05012e-01       8.95031e-04       7.42143e+02
  2.800      2.88134e+02      -1.01945e+00      -2.39144e-01       8.86938e-04       7.33450e+02
  2.900      2.87332e+02      -8.24167e-01      -2.94838e-01       8.78978e-04       7.24842e+02
  3.000      2.86514e+02      -6.24346e-01      -3.68294e-01       8.71119e-04       7.16316e+02
  3.100      2.85689e+02      -4.25923e-01      -4.55715e-01       8.63329e-04       7.07868e+02
  3.200      2.84868e+02      -2.34835e-01      -5.53301e-01       8.55576e-04       6.99494e+02
  3.300      2.84056e+02      -5.43979e-02      -6.57094e-01       8.47838e-04       6.91192e+02
  3.400      2.83253e+02       1.20833e-01      -7.62614e-01       8.40116e-04       6.82960e+02
  3.500      2.82457e+02       2.98124e-01      -8.65269e-01       8.32419e-04       6.74801e+02
  3.600      2.81666e+02       4.84741e-01      -9.60467e-01       8.24753e-04       6.66715e+02
  3.700      2.80878e+02       6.87953e-01      -1.04362e+00       8.17126e-04       6.58702e+02
  3.800      2.80092e+02       9.15025e-01      -1.11013e+00       8.09544e-04       6.50763e+02
  3.900      2.79305e+02       1.17223e+00      -1.15546e+00       8.02013e-04       6.42899e+02
  4.000      2.78519e+02       1.46048e+00      -1.17534e+00       7.94531e-04       6.35108e+02
  4.100      2.77734e+02       1.77892e+00      -1.16561e+00       7.87094e-04       6.27391e+02
  4.200      2.76953e+02       2.12669e+00      -1.12210e+00       7.79698e-04       6.19746e+02
  4.300      2.76175e+02       2.50293e+00      -1.04063e+00       7.72339e-04       6.12174e+02
  4.400      2.75404e+02       2.90677e+00      -9.17021e-01       7.65014e-04       6.04674e+02
  4.500      2.74639e+02       3.33727e+00      -7.47298e-01       7.57719e-04       5.97246e+02
  4.600      2.73884e+02       3.78934e+00      -5.35945e-01       7.50449e-04       5.89888e+02
  4.700      2.73140e+02       4.25213e+00      -2.99307e-01       7.43197e-04       5.82601e+02
  4.800      2.72411e+02       4.71437e+00      -5.46118e-02       7.35956e-04       5.75385e+02
  4.900      2.71699e+02       5.16476e+00       1.80907e-01       7.28719e-04       5.68239e+02
  5.000      2.71008e+02       5.59202e+00       3.90022e-01       7.21481e-04       5.61163e+02
  5.100      2.70340e+02       5.98486e+00       5.55502e-01       7.14235e-04       5.54158e+02
  5.200      2.69698e+02       6.33212e+00       6.60416e-01       7.06976e-04       5.47222e+02
  5.300      2.69082e+02       6.62665e+00       6.99264e-01       6.99702e-04       5.40356e+02
  5.400      2.68491e+02       6.86656e+00       6.81334e-01       6.92424e-04       5.33561e+02
  5.500      2.67922e+02       7.05030e+00       6.16896e-01       6.85149e-04       5.26835e+02
  5.600      2.67373e+02       7.17631e+00       5.16219e-01       6.77884e-04       5.20181e+02
  5.700      2.66841e+02       7.24304e+00       3.89573e-01       6.70638e-04       5.13597e+02
  5.800      2.66324e+02       7.24895e+00       2.47226e-01       6.63418e-04       5.07084e+02
  5.900      2.65820e+02       7.19247e+00       9.94483e-02       6.56232e-04       5.00642e+02
  6.000      2.65326e+02       7.07363e+00      -4.39182e-02       6.49087e-04       4.94271e+02
  6.100      2.64839e+02       6.90088e+00      -1.75348e-01       6.41991e-04       4.87970e+02
  6.200      2.64355e+02       6.68553e+00      -2.88094e-01       6.34955e-04       4.81739e+02
  6.300      2.63868e+02       6.43891e+00      -3.75412e-01       6.27987e-04       4.75576e+02
  6.400      2.63376e+02       6.17232e+00      -4.30554e-01       6.21095e-04       4.69480e+02
  6.500      2.62874e+02       5.89709e+00      -4.46777e-01       6.14289e-04       4.63450e+02
  6.600      2.62359e+02       5.62452e+00      -4.17333e-01       6.07576e-04       4.57486e+02
  6.700      2.61825e+02       5.36593e+00      -3.35477e-01       6.00963e-04       4.51586e+02
  6.800      2.61269e+02       5.13198e+00      -1.95637e-01       5.94458e-04       4.45750e+02
  6.900      2.60691e+02       4.92721e+00      -3.20169e-03       5.88061e-04       4.39977e+02
  7.000      2.60090e+02       4.75285e+00       2.30469e-01       5.81766e-04       4.34265e+02
  7.100      2.59469e+02       4.61006e+00       4.93954e-01       5.75572e-04       4.28614e+02
  7.200      2.58826e+02       4.50004e+00       7.75834e-01       5.69474e-04       4.23022e+02
  7.300      2.58163e+02       4.42396e+00       1.06469e+00       5.63469e-04       4.17489e+02
  7.400      2.57480e+02       4.38301e+00       1.34910e+00       5.57553e-04       4.12014e+02
  7.500      2.56779e+02       4.37836e+00       1.61764e+00       5.51723e-04       4.06595e+02
  7.600      2.56059e+02       4.41119e+00       1.85890e+00       5.45976e-04       4.01233e+02
  7.700      2.55322e+02       4.48258e+00       2.06291e+00       5.40309e-04       3.95925e+02
  7.800      2.54570e+02       4.59268e+00       2.23166e+00       5.34716e-04       3.90672e+02
  7.900      2.53804e+02       4.74120e+00       2.37298e+00       5.29191e-04       3.85472e+02
  8.000      2.53028e+02       4.92782e+00       2.49474e+00       5.23728e-04       3.80327e+02
  8.100      2.52245e+02       5.15227e+00       2.60479e+00       5.18321e-04       3.75235e+02
  8.200      2.51457e+02       5.41423e+00       2.71101e+00       5.12964e-04       3.70196e+02
  8.300      2.50666e+02       5.71342e+00       2.82127e+00       5.07650e-04       3.65209e+02
  8.400      2.49875e+02       6.04953e+00       2.94344e+00       5.02376e-04       3.60275e+02
  8.500      2.49087e+02       6.42227e+00       3.08537e+00       4.97135e-04       3.55392e+02
  8.600      2.48305e+02       6.83134e+00       3.25495e+00       4.91922e-04       3.50561e+02
  8.700      2.47530e+02       7.27590e+00       3.45837e+00       4.86733e-04       3.45781e+02
  8.800      2.46763e+02       7.75211e+00       3.69240e+00       4.81568e-04       3.41051e+02
  8.900      2.46003e+02       8.25501e+00       3.95048e+00       4.76428e-04       3.36372e+02
  9.000      2.45250e+02       8.77969e+00       4.22604e+00       4.71315e-04       3.31743e+02
  9.100      2.44502e+02       9.32120e+00       4.51250e+00       4.66230e-04       3.27163e+02
  9.200      2.43760e+02       9.87460e+00       4.80328e+00       4.61175e-04       3.22633e+02
  9.300      2.43022e+02       1.04350e+01       5.09183e+00       4.56150e-04       3.18152e+02
  9.400      2.42287e+02       1.09974e+01       5.37155e+00       4.51158e-04       3.13719e+02
  9.500      2.41556e+02       1.15569e+01       5.63589e+00       4.46199e-04       3.09335e+02
  9.600      2.40828e+02       1.21086e+01       5.87826e+00       4.41275e-04       3.04998e+02
  9.700      2.40101e+02       1.26475e+01       6.09210e+00       4.36387e-04       3.00710e+02
  9.800      2.39375e+02       1.31690e+01       6.27162e+00       4.31535e-04       2.96468e+02
  9.900      2.38652e+02       1.36705e+01       6.41627e+00       4.26719e-04       2.92273e+02
 10.000      2.37932e+02       1.41505e+01       6.52767e+00       4.21937e-04       2.88126e+02
 10.100      2.37216e+02       1.46073e+01       6.60741e+00       4.17187e-04       2.84025e+02
 10.200      2.36506e+02       1.50390e+01       6.65709e+00       4.12468e-04       2.79971e+02
 10.300      2.35802e+02       1.54442e+01       6.67832e+00       4.07777e-04       2.75964e+02
 10.400      2.35106e+02       1.58210e+01       6.67270e+00       4.03114e-04       2.72003e+02
 10.500      2.34419e+02       1.61679e+01       6.64184e+00       3.98477e-04       2.68089e+02
 10.600      2.33743e+02       1.64832e+01       6.58733e+00       3.93864e-04       2.64221e+02
 10.700      2.33078e+02       1.67651e+01       6.51079e+00       3.89274e-04       2.60398e+02
 10.800      2.32425e+02       1.70121e+01       6.41380e+00       3.84706e-04       2.56621e+02
 10.900      2.31786e+02       1.72223e+01       6.29799e+00       3.80158e-04       2.52890e+02
 11.000      2.31161e+02       1.73943e+01       6.16495e+00       3.75629e-04       2.49204e+02
 11.100      2.30552e+02       1.75275e+01       6.01664e+00       3.71119e-04       2.45563e+02
 11.200      2.29955e+02       1.76245e+01       5.85574e+00       3.66633e-04       2.41967e+02
 11.300      2.29369e+02       1.76879e+01       5.68505e+00       3.62172e-04       2.38414e+02
 11.400      2.28792e+02       1.77206e+01       5.50736e+00       3.57741e-04       2.34905e+02
 11.500      2.28221e+02       1.77253e+01       5.32545e+00       3.53344e-04       2.31438e+02
 11.600      2.27654e+02       1.77048e+01       5.14210e+00       3.48982e-04       2.28013e+02
 11.700      2.27088e+02       1.76618e+01       4.96012e+00       3.44660e-04       2.24630e+02
 11.800      2.26522e+02       1.75991e+01       4.78228e+00       3.40380e-04       2.21287e+02
 11.900      2.25953e+02       1.75194e+01       4.61137e+00       3.36145e-04       2.17985e+02
 12.000      2.25379e+02       1.74256e+01       4.45019e+00       3.31958e-04       2.14723e+02
 12.100      2.24798e+02       1.73204e+01       4.30151e+00       3.27821e-04       2.11501e+02
 12.200      2.24207e+02       1.72066e+01       4.16812e+00       3.23737e-04       2.08317e+02
 12.300      2.23605e+02       1.70869e+01       4.05282e+00       3.19709e-04       2.05172e+02
 12.400      2.22988e+02       1.69640e+01       3.95839e+00       3.15738e-04       2.02064e+02
 12.500      2.22355e+02       1.68408e+01       3.88759e+00       3.11826e-04       1.98995e+02
 12.600      2.21705e+02       1.67185e+01       3.84125e+00       3.07974e-04       1.95962e+02
 12.700      2.21042e+02       1.65959e+01       3.81716e+00       3.04177e-04       1.92967e+02
 12.800      2.20366e+02       1.64718e+01       3.81288e+00       3.00431e-04       1.90008e+02
 12.900      2.19682e+02       1.63448e+01       3.82593e+00       2.96731e-04       1.87086e+02
 13.000      2.18993e+02       1.62135e+01       3.85386e+00       2.93075e-04       1.84200e+02
 13.100      2.18299e+02       1.60768e+01       3.89421e+00       2.89459e-04       1.81351e+02
 13.200      2.17606e+02       1.59332e+01       3.94452e+00       2.85877e-04       1.78539e+02
 13.300      2.16915e+02       1.57814e+01       4.00232e+00       2.82328e-04       1.75762e+02
 13.400      2.16229e+02       1.56202e+01       4.06516e+00       2.78807e-04       1.73021e+02
 13.500      2.15550e+02       1.54481e+01       4.13058e+00       2.75311e-04       1.70316e+02
 13.600      2.14882e+02       1.52639e+01       4.19611e+00       2.71838e-04       1.67646e+02
 13.700      2.14228e+02       1.50663e+01       4.25929e+00       2.68383e-04       1.65011e+02
 13.800      2.13589e+02       1.48539e+01       4.31767e+00       2.64944e-04       1.62411e+02
 13.900      2.12970e+02       1.46255e+01       4.36879e+00       2.61518e-04       1.59846e+02
 14.000      2.12372e+02       1.43796e+01       4.41017e+00       2.58103e-04       1.57315e+02
 14.100      2.11798e+02       1.41150e+01       4.43937e+00       2.54696e-04       1.54819e+02
 14.200      2.11251e+02       1.38304e+01       4.45393e+00       2.51294e-04       1.52357e+02
 14.300      2.10734e+02       1.35244e+01       4.45137e+00       2.47895e-04       1.49928e+02
 14.400      2.10249e+02       1.31962e+01       4.42989e+00       2.44498e-04       1.47533e+02
 14.500      2.09795e+02       1.28470e+01       4.39006e+00       2.41104e-04       1.45172e+02
 14.600      2.09373e+02       1.24782e+01       4.33297e+00       2.37715e-04       1.42843e+02
 14.700      2.08981e+02       1.20915e+01       4.25973e+00       2.34335e-04       1.40548e+02
 14.800      2.08618e+02       1.16884e+01       4.17146e+00       2.30963e-04       1.38285e+02
 14.900      2.08284e+02       1.12704e+01       4.06924e+00       2.27604e-04       1.36056e+02
 15.000      2.07978e+02       1.08391e+01       3.95419e+00       2.24258e-04       1.33859e+02
 15.100      2.07700e+02       1.03959e+01       3.82741e+00       2.20927e-04       1.31694e+02
 15.200      2.07448e+02       9.94256e+00       3.69001e+00       2.17613e-04       1.29562e+02
 15.300      2.07222e+02       9.48048e+00       3.54309e+00       2.14319e-04       1.27461e+02
 15.400      2.07021e+02       9.01125e+00       3.38776e+00       2.11045e-04       1.25392e+02
 15.500      2.06845e+02       8.53640e+00       3.22512e+00       2.07793e-04       1.23355e+02
 15.600      2.06692e+02       8.05748e+00       3.05628e+00       2.04564e-04       1.21349e+02
 15.700      2.06562e+02       7.57604e+00       2.88234e+00       2.01361e-04       1.19374e+02
 15.800      2.06455e+02       7.09361e+00       2.70441e+00       1.98185e-04       1.17430e+02
 15.900      2.06369e+02       6.61175e+00       2.52358e+00       1.95036e-04       1.15516e+02
 16.000      2.06304e+02       6.13200e+00       2.34098e+00       1.91917e-04       1.13633e+02
 16.100      2.06259e+02       5.65589e+00       2.15770e+00       1.88828e-04       1.11779e+02
 16.200      2.06234e+02       5.18498e+00       1.97484e+00       1.85770e-04       1.09955e+02
 16.300      2.06227e+02       4.72082e+00       1.79352e+00       1.82744e-04       1.08161e+02
 16.400      2.06238e+02       4.26493e+00       1.61483e+00       1.79752e-04       1.06396e+02
 16.500      2.06266e+02       3.81887e+00       1.43988e+00       1.76794e-04       1.04659e+02
 16.600      2.06311e+02       3.38418e+00       1.26978e+00       1.73872e-04       1.02951e+02
 16.700      2.06371e+02       2.96241e+00       1.10564e+00       1.70985e-04       1.01272e+02
 16.800      2.06447e+02       2.55510e+00       9.48548e-01       1.68135e-04       9.96201e+01
 16.900      2.06536e+02       2.16329e+00       7.99271e-01       1.65322e-04       9.79960e+01
 17.000      2.06639e+02       1.78699e+00       6.57873e-01       1.62546e-04       9.63990e+01
 17.100      2.06755e+02       1.42612e+00       5.24331e-01       1.59809e-04       9.48287e+01
 17.200      2.06883e+02       1.08057e+00       3.98624e-01       1.57110e-04       9.32848e+01
 17.300      2.07022e+02       7.50250e-01       2.80731e-01       1.54449e-04       9.17668e+01
 17.400      2.07172e+02       4.35041e-01       1.70626e-01       1.51828e-04       9.02743e+01
 17.500      2.07331e+02       1.34852e-01       6.82895e-02       1.49245e-04       8.88068e+01
 17.600      2.07499e+02      -1.50418e-01      -2.63018e-02       1.46702e-04       8.73642e+01
 17.700      2.07675e+02      -4.20869e-01      -1.13169e-01       1.44198e-04       8.59457e+01
 17.800      2.07858e+02      -6.76598e-01      -1.92334e-01       1.41733e-04       8.45513e+01
 17.900      2.08048e+02      -9.17714e-01      -2.63821e-01       1.39308e-04       8.31804e+01
 18.000      2.08244e+02      -1.14431e+00      -3.27651e-01       1.36922e-04       8.18326e+01
 18.100      2.08444e+02      -1.35650e+00      -3.83846e-01       1.34575e-04       8.05076e+01
 18.200      2.08649e+02      -1.55436e+00      -4.32428e-01       1.32268e-04       7.92051e+01
 18.300      2.08857e+02      -1.73801e+00      -4.73419e-01       1.30000e-04       7.79247e+01
 18.400      2.09068e+02      -1.90755e+00      -5.06843e-01       1.27771e-04       7.66660e+01
 18.500      2.09281e+02      -2.06308e+00      -5.32720e-01       1.25581e-04       7.54286e+01
 18.600      2.09495e+02      -2.20469e+00      -5.51073e-01       1.23430e-04       7.42123e+01
 18.700      2.09709e+02      -2.33249e+00      -5.61924e-01       1.21317e-04       7.30166e+01
 18.800      2.09923e+02      -2.44658e+00      -5.65295e-01       1.19243e-04       7.18413e+01
 18.900      2.10135e+02      -2.54705e+00      -5.61209e-01       1.17207e-04       7.06860e+01
 19.000      2.10346e+02      -2.63403e+00      -5.49694e-01       1.15208e-04       6.95504e+01
 19.100      2.10554e+02      -2.70811e+00      -5.31026e-01       1.13247e-04       6.84342e+01
 19.200      2.10760e+02      -2.77055e+00      -5.05806e-01       1.11323e-04       6.73370e+01
 19.300      2.10963e+02      -2.82261e+00      -4.74658e-01       1.09435e-04       6.62586e+01
 19.400      2.11163e+02      -2.86560e+00      -4.38202e-01       1.07582e-04       6.51986e+01
 19.500      2.11362e+02      -2.90080e+00      -3.97061e-01       1.05763e-04       6.41568e+01
 19.600      2.11557e+02      -2.92949e+00      -3.51858e-01       1.03979e-04       6.31329e+01
 19.700      2.11750e+02      -2.95296e+00      -3.03215e-01       1.02228e-04       6.21265e+01
 19.800      2.11941e+02      -2.97250e+00      -2.51756e-01       1.00510e-04       6.11375e+01
 19.900      2.12129e+02      -2.98939e+00      -1.98101e-01       9.88247e-05       6.01654e+01
 20.000      2.12314e+02      -3.00493e+00      -1.42873e-01       9.71706e-05       5.92101e+01
 20.100      2.12497e+02      -3.02039e+00      -8.66955e-02       9.55476e-05       5.82713e+01
 20.200      2.12677e+02      -3.03706e+00      -3.01903e-02       9.39550e-05       5.73486e+01
 20.300      2.12855e+02      -3.05623e+00       2.60190e-02       9.23924e-05       5.64419e+01
