# Data Source: NASA MERRA (version 2)
# Model Time = 2011-05-28 18:00:00
# Location = [  39.1026,  -84.5123 ]
# Fields = [ Z(km), T(K), U(m/s), V(m/s), R(g/cm3), P(mbar) ]
# Ground Height = 0.165
  0.000      2.96863e+02       3.03324e-01       2.46143e+00       1.18837e-03       1.01248e+03
  0.100      2.96173e+02       3.51553e-01       2.47635e+00       1.17742e-03       1.00083e+03
  0.200      2.95493e+02       4.00743e-01       2.48166e+00       1.16654e-03       9.89302e+02
  0.300      2.94685e+02       4.37414e-01       2.61222e+00       1.15627e-03       9.77911e+02
  0.400      2.93638e+02       4.52042e-01       2.97987e+00       1.14703e-03       9.66648e+02
  0.500      2.92463e+02       4.70375e-01       3.49114e+00       1.13836e-03       9.55500e+02
  0.600      2.91381e+02       5.35046e-01       3.95101e+00       1.12937e-03       9.44449e+02
  0.700      2.90451e+02       6.51594e-01       4.30551e+00       1.11983e-03       9.33486e+02
  0.800      2.89565e+02       7.89011e-01       4.64137e+00       1.11017e-03       9.22612e+02
  0.900      2.88698e+02       9.79644e-01       5.02732e+00       1.10050e-03       9.11832e+02
  1.000      2.88000e+02       1.39274e+00       5.48153e+00       1.09024e-03       9.01150e+02
  1.100      2.87614e+02       2.17674e+00       6.01145e+00       1.07889e-03       8.90575e+02
  1.200      2.87497e+02       3.26837e+00       6.60088e+00       1.06665e-03       8.80110e+02
  1.300      2.87543e+02       4.53136e+00       7.22544e+00       1.05393e-03       8.69759e+02
  1.400      2.87648e+02       5.82940e+00       7.86077e+00       1.04116e-03       8.59527e+02
  1.500      2.87706e+02       7.02617e+00       8.48247e+00       1.02871e-03       8.49418e+02
  1.600      2.87634e+02       8.02060e+00       9.06829e+00       1.01687e-03       8.39432e+02
  1.700      2.87431e+02       8.83023e+00       9.60313e+00       1.00562e-03       8.29565e+02
  1.800      2.87113e+02       9.49751e+00       1.00734e+01       9.94897e-04       8.19810e+02
  1.900      2.86696e+02       1.00649e+01       1.04654e+01       9.84620e-04       8.10162e+02
  2.000      2.86194e+02       1.05749e+01       1.07656e+01       9.74722e-04       8.00614e+02
  2.100      2.85624e+02       1.10614e+01       1.09640e+01       9.65135e-04       7.91161e+02
  2.200      2.85009e+02       1.15174e+01       1.10676e+01       9.55774e-04       7.81802e+02
  2.300      2.84375e+02       1.19235e+01       1.10890e+01       9.46554e-04       7.72535e+02
  2.400      2.83744e+02       1.22602e+01       1.10403e+01       9.37389e-04       7.63359e+02
  2.500      2.83143e+02       1.25079e+01       1.09342e+01       9.28199e-04       7.54274e+02
  2.600      2.82595e+02       1.26481e+01       1.07824e+01       9.18908e-04       7.45279e+02
  2.700      2.82111e+02       1.26782e+01       1.05878e+01       9.09485e-04       7.36373e+02
  2.800      2.81688e+02       1.26109e+01       1.03450e+01       8.99947e-04       7.27559e+02
  2.900      2.81325e+02       1.24596e+01       1.00479e+01       8.90309e-04       7.18838e+02
  3.000      2.81018e+02       1.22375e+01       9.69059e+00       8.80586e-04       7.10211e+02
  3.100      2.80765e+02       1.19579e+01       9.26722e+00       8.70793e-04       7.01682e+02
  3.200      2.80561e+02       1.16341e+01       8.77370e+00       8.60954e-04       6.93249e+02
  3.300      2.80380e+02       1.12785e+01       8.21950e+00       8.51148e-04       6.84911e+02
  3.400      2.80187e+02       1.09032e+01       7.62016e+00       8.41476e-04       6.76663e+02
  3.500      2.79948e+02       1.05204e+01       6.99125e+00       8.32038e-04       6.68502e+02
  3.600      2.79628e+02       1.01422e+01       6.34834e+00       8.22924e-04       6.60423e+02
  3.700      2.79191e+02       9.78069e+00       5.70699e+00       8.14228e-04       6.52424e+02
  3.800      2.78608e+02       9.44776e+00       5.08128e+00       8.06023e-04       6.44500e+02
  3.900      2.77887e+02       9.15123e+00       4.46954e+00       7.98273e-04       6.36650e+02
  4.000      2.77061e+02       8.89667e+00       3.86073e+00       7.90872e-04       6.28874e+02
  4.100      2.76165e+02       8.68960e+00       3.24367e+00       7.83721e-04       6.21172e+02
  4.200      2.75232e+02       8.53554e+00       2.60717e+00       7.76719e-04       6.13542e+02
  4.300      2.74295e+02       8.44003e+00       1.94007e+00       7.69771e-04       6.05984e+02
  4.400      2.73389e+02       8.40857e+00       1.23122e+00       7.62782e-04       5.98499e+02
  4.500      2.72534e+02       8.44447e+00       4.80127e-01       7.55696e-04       5.91085e+02
  4.600      2.71722e+02       8.54609e+00      -2.90165e-01       7.48537e-04       5.83742e+02
  4.700      2.70942e+02       8.71111e+00      -1.05341e+00       7.41341e-04       5.76468e+02
  4.800      2.70180e+02       8.93725e+00      -1.78337e+00       7.34139e-04       5.69264e+02
  4.900      2.69426e+02       9.22220e+00      -2.45380e+00       7.26966e-04       5.62128e+02
  5.000      2.68668e+02       9.56364e+00      -3.03847e+00       7.19851e-04       5.55060e+02
  5.100      2.67893e+02       9.95928e+00      -3.51125e+00       7.12828e-04       5.48059e+02
  5.200      2.67097e+02       1.04060e+01      -3.85863e+00       7.05904e-04       5.41125e+02
  5.300      2.66291e+02       1.08993e+01      -4.08963e+00       6.99055e-04       5.34257e+02
  5.400      2.65486e+02       1.14345e+01      -4.21567e+00       6.92251e-04       5.27458e+02
  5.500      2.64693e+02       1.20069e+01      -4.24816e+00       6.85465e-04       5.20727e+02
  5.600      2.63923e+02       1.26118e+01      -4.19850e+00       6.78669e-04       5.14065e+02
  5.700      2.63188e+02       1.32446e+01      -4.07811e+00       6.71836e-04       5.07472e+02
  5.800      2.62499e+02       1.39006e+01      -3.89838e+00       6.64941e-04       5.00949e+02
  5.900      2.61865e+02       1.45749e+01      -3.67085e+00       6.57965e-04       4.94495e+02
  6.000      2.61278e+02       1.52608e+01      -3.40781e+00       6.50927e-04       4.88110e+02
  6.100      2.60728e+02       1.59511e+01      -3.12187e+00       6.43860e-04       4.81793e+02
  6.200      2.60200e+02       1.66387e+01      -2.82560e+00       6.36795e-04       4.75542e+02
  6.300      2.59683e+02       1.73162e+01      -2.53161e+00       6.29763e-04       4.69356e+02
  6.400      2.59164e+02       1.79764e+01      -2.25249e+00       6.22794e-04       4.63235e+02
  6.500      2.58630e+02       1.86121e+01      -2.00082e+00       6.15916e-04       4.57175e+02
  6.600      2.58070e+02       1.92161e+01      -1.78920e+00       6.09156e-04       4.51178e+02
  6.700      2.57471e+02       1.97814e+01      -1.62876e+00       6.02539e-04       4.45241e+02
  6.800      2.56833e+02       2.03037e+01      -1.51984e+00       5.96066e-04       4.39367e+02
  6.900      2.56160e+02       2.07798e+01      -1.45800e+00       5.89728e-04       4.33555e+02
  7.000      2.55455e+02       2.12062e+01      -1.43876e+00       5.83517e-04       4.27809e+02
  7.100      2.54722e+02       2.15799e+01      -1.45765e+00       5.77425e-04       4.22129e+02
  7.200      2.53966e+02       2.18975e+01      -1.51021e+00       5.71445e-04       4.16516e+02
  7.300      2.53189e+02       2.21557e+01      -1.59196e+00       5.65570e-04       4.10973e+02
  7.400      2.52396e+02       2.23514e+01      -1.69843e+00       5.59791e-04       4.05500e+02
  7.500      2.51591e+02       2.24811e+01      -1.82515e+00       5.54101e-04       4.00097e+02
  7.600      2.50776e+02       2.25441e+01      -1.96856e+00       5.48493e-04       3.94765e+02
  7.700      2.49955e+02       2.25493e+01      -2.12893e+00       5.42950e-04       3.89496e+02
  7.800      2.49130e+02       2.25083e+01      -2.30753e+00       5.37454e-04       3.84281e+02
  7.900      2.48303e+02       2.24327e+01      -2.50567e+00       5.31988e-04       3.79111e+02
  8.000      2.47477e+02       2.23341e+01      -2.72460e+00       5.26537e-04       3.73978e+02
  8.100      2.46654e+02       2.22241e+01      -2.96562e+00       5.21084e-04       3.68874e+02
  8.200      2.45836e+02       2.21145e+01      -3.23002e+00       5.15615e-04       3.63792e+02
  8.300      2.45026e+02       2.20166e+01      -3.51906e+00       5.10115e-04       3.58726e+02
  8.400      2.44226e+02       2.19422e+01      -3.83404e+00       5.04570e-04       3.53668e+02
  8.500      2.43439e+02       2.19028e+01      -4.17622e+00       4.98968e-04       3.48613e+02
  8.600      2.42664e+02       2.19053e+01      -4.54497e+00       4.93314e-04       3.43566e+02
  8.700      2.41900e+02       2.19477e+01      -4.93627e+00       4.87647e-04       3.38551e+02
  8.800      2.41145e+02       2.20275e+01      -5.34570e+00       4.82010e-04       3.33592e+02
  8.900      2.40395e+02       2.21418e+01      -5.76888e+00       4.76439e-04       3.28711e+02
  9.000      2.39647e+02       2.22879e+01      -6.20140e+00       4.70974e-04       3.23930e+02
  9.100      2.38900e+02       2.24631e+01      -6.63887e+00       4.65650e-04       3.19270e+02
  9.200      2.38151e+02       2.26646e+01      -7.07687e+00       4.60500e-04       3.14748e+02
  9.300      2.37396e+02       2.28898e+01      -7.51102e+00       4.55558e-04       3.10384e+02
  9.400      2.36634e+02       2.31359e+01      -7.93691e+00       4.50856e-04       3.06194e+02
  9.500      2.35861e+02       2.34002e+01      -8.35015e+00       4.46423e-04       3.02193e+02
  9.600      2.35075e+02       2.36799e+01      -8.74637e+00       4.42287e-04       2.98396e+02
  9.700      2.34276e+02       2.39728e+01      -9.12234e+00       4.38450e-04       2.94801e+02
  9.800      2.33464e+02       2.42770e+01      -9.47622e+00       4.34877e-04       2.91386e+02
  9.900      2.32642e+02       2.45907e+01      -9.80621e+00       4.31534e-04       2.88128e+02
 10.000      2.31810e+02       2.49122e+01      -1.01106e+01       4.28391e-04       2.85005e+02
 10.100      2.30970e+02       2.52396e+01      -1.03875e+01       4.25414e-04       2.81999e+02
 10.200      2.30123e+02       2.55711e+01      -1.06352e+01       4.22573e-04       2.79089e+02
 10.300      2.29271e+02       2.59049e+01      -1.08520e+01       4.19839e-04       2.76258e+02
 10.400      2.28416e+02       2.62393e+01      -1.10360e+01       4.17183e-04       2.73486e+02
 10.500      2.27559e+02       2.65725e+01      -1.11855e+01       4.14577e-04       2.70758e+02
 10.600      2.26702e+02       2.69026e+01      -1.12988e+01       4.11993e-04       2.68056e+02
 10.700      2.25845e+02       2.72278e+01      -1.13739e+01       4.09404e-04       2.65365e+02
 10.800      2.24991e+02       2.75464e+01      -1.14093e+01       4.06784e-04       2.62670e+02
 10.900      2.24140e+02       2.78566e+01      -1.14030e+01       4.04108e-04       2.59955e+02
 11.000      2.23295e+02       2.81566e+01      -1.13533e+01       4.01350e-04       2.57208e+02
 11.100      2.22457e+02       2.84445e+01      -1.12585e+01       3.98487e-04       2.54415e+02
 11.200      2.21627e+02       2.87186e+01      -1.11168e+01       3.95495e-04       2.51562e+02
 11.300      2.20807e+02       2.89770e+01      -1.09264e+01       3.92351e-04       2.48639e+02
 11.400      2.19998e+02       2.92175e+01      -1.06893e+01       3.89045e-04       2.45641e+02
 11.500      2.19201e+02       2.94371e+01      -1.04107e+01       3.85575e-04       2.42568e+02
 11.600      2.18417e+02       2.96330e+01      -1.00964e+01       3.81943e-04       2.39424e+02
 11.700      2.17647e+02       2.98021e+01      -9.75189e+00       3.78150e-04       2.36210e+02
 11.800      2.16892e+02       2.99416e+01      -9.38294e+00       3.74196e-04       2.32929e+02
 11.900      2.16152e+02       3.00487e+01      -8.99515e+00       3.70084e-04       2.29584e+02
 12.000      2.15430e+02       3.01202e+01      -8.59416e+00       3.65814e-04       2.26177e+02
 12.100      2.14726e+02       3.01534e+01      -8.18561e+00       3.61391e-04       2.22712e+02
 12.200      2.14040e+02       3.01453e+01      -7.77515e+00       3.56816e-04       2.19190e+02
 12.300      2.13374e+02       3.00930e+01      -7.36841e+00       3.52092e-04       2.15615e+02
 12.400      2.12729e+02       2.99936e+01      -6.97104e+00       3.47223e-04       2.11991e+02
 12.500      2.12106e+02       2.98441e+01      -6.58867e+00       3.42213e-04       2.08320e+02
 12.600      2.11505e+02       2.96416e+01      -6.22694e+00       3.37065e-04       2.04605e+02
 12.700      2.10928e+02       2.93833e+01      -5.89151e+00       3.31785e-04       2.00851e+02
 12.800      2.10376e+02       2.90668e+01      -5.58734e+00       3.26379e-04       1.97061e+02
 12.900      2.09850e+02       2.86945e+01      -5.31406e+00       3.20867e-04       1.93248e+02
 13.000      2.09351e+02       2.82713e+01      -5.06872e+00       3.15276e-04       1.89430e+02
 13.100      2.08881e+02       2.78020e+01      -4.84837e+00       3.09631e-04       1.85620e+02
 13.200      2.08441e+02       2.72913e+01      -4.65004e+00       3.03956e-04       1.81834e+02
 13.300      2.08032e+02       2.67441e+01      -4.47078e+00       2.98272e-04       1.78084e+02
 13.400      2.07657e+02       2.61651e+01      -4.30763e+00       2.92601e-04       1.74383e+02
 13.500      2.07316e+02       2.55591e+01      -4.15762e+00       2.86962e-04       1.70742e+02
 13.600      2.07011e+02       2.49310e+01      -4.01779e+00       2.81375e-04       1.67171e+02
 13.700      2.06742e+02       2.42855e+01      -3.88519e+00       2.75855e-04       1.63679e+02
 13.800      2.06513e+02       2.36274e+01      -3.75685e+00       2.70419e-04       1.60275e+02
 13.900      2.06323e+02       2.29616e+01      -3.62981e+00       2.65081e-04       1.56967e+02
 14.000      2.06175e+02       2.22928e+01      -3.50112e+00       2.59854e-04       1.53762e+02
 14.100      2.06070e+02       2.16258e+01      -3.36781e+00       2.54751e-04       1.50665e+02
 14.200      2.06008e+02       2.09652e+01      -3.22722e+00       2.49781e-04       1.47681e+02
 14.300      2.05989e+02       2.03124e+01      -3.07901e+00       2.44944e-04       1.44808e+02
 14.400      2.06009e+02       1.96681e+01      -2.92395e+00       2.40237e-04       1.42039e+02
 14.500      2.06066e+02       1.90324e+01      -2.76282e+00       2.35655e-04       1.39368e+02
 14.600      2.06156e+02       1.84059e+01      -2.59639e+00       2.31194e-04       1.36790e+02
 14.700      2.06276e+02       1.77889e+01      -2.42543e+00       2.26851e-04       1.34299e+02
 14.800      2.06425e+02       1.71818e+01      -2.25071e+00       2.22622e-04       1.31890e+02
 14.900      2.06599e+02       1.65849e+01      -2.07301e+00       2.18504e-04       1.29560e+02
 15.000      2.06794e+02       1.59987e+01      -1.89311e+00       2.14494e-04       1.27302e+02
 15.100      2.07009e+02       1.54236e+01      -1.71178e+00       2.10587e-04       1.25113e+02
 15.200      2.07240e+02       1.48598e+01      -1.52979e+00       2.06781e-04       1.22989e+02
 15.300      2.07485e+02       1.43079e+01      -1.34791e+00       2.03074e-04       1.20927e+02
 15.400      2.07740e+02       1.37681e+01      -1.16692e+00       1.99461e-04       1.18921e+02
 15.500      2.08003e+02       1.32410e+01      -9.87599e-01       1.95940e-04       1.16970e+02
 15.600      2.08270e+02       1.27267e+01      -8.10712e-01       1.92509e-04       1.15070e+02
 15.700      2.08540e+02       1.22258e+01      -6.37038e-01       1.89165e-04       1.13217e+02
 15.800      2.08808e+02       1.17386e+01      -4.67347e-01       1.85905e-04       1.11409e+02
 15.900      2.09073e+02       1.12655e+01      -3.02417e-01       1.82726e-04       1.09643e+02
 16.000      2.09331e+02       1.08069e+01      -1.43018e-01       1.79627e-04       1.07916e+02
 16.100      2.09579e+02       1.03631e+01       1.00738e-02       1.76604e-04       1.06226e+02
 16.200      2.09815e+02       9.93458e+00       1.56085e-01       1.73656e-04       1.04570e+02
 16.300      2.10035e+02       9.52170e+00       2.94239e-01       1.70780e-04       1.02946e+02
 16.400      2.10237e+02       9.12481e+00       4.23767e-01       1.67974e-04       1.01352e+02
 16.500      2.10418e+02       8.74432e+00       5.43893e-01       1.65237e-04       9.97862e+01
 16.600      2.10576e+02       8.38038e+00       6.54176e-01       1.62564e-04       9.82460e+01
 16.700      2.10712e+02       8.03261e+00       7.55057e-01       1.59954e-04       9.67310e+01
 16.800      2.10828e+02       7.70051e+00       8.47122e-01       1.57402e-04       9.52402e+01
 16.900      2.10925e+02       7.38359e+00       9.30961e-01       1.54906e-04       9.37730e+01
 17.000      2.11005e+02       7.08135e+00       1.00716e+00       1.52462e-04       9.23287e+01
 17.100      2.11070e+02       6.79330e+00       1.07631e+00       1.50067e-04       9.09064e+01
 17.200      2.11121e+02       6.51895e+00       1.13899e+00       1.47719e-04       8.95055e+01
 17.300      2.11160e+02       6.25782e+00       1.19579e+00       1.45415e-04       8.81255e+01
 17.400      2.11188e+02       6.00940e+00       1.24731e+00       1.43152e-04       8.67656e+01
 17.500      2.11207e+02       5.77320e+00       1.29412e+00       1.40927e-04       8.54252e+01
 17.600      2.11219e+02       5.54873e+00       1.33681e+00       1.38740e-04       8.41037e+01
 17.700      2.11225e+02       5.33551e+00       1.37598e+00       1.36586e-04       8.28007e+01
 17.800      2.11227e+02       5.13303e+00       1.41221e+00       1.34465e-04       8.15156e+01
 17.900      2.11226e+02       4.94080e+00       1.44608e+00       1.32375e-04       8.02478e+01
 18.000      2.11224e+02       4.75834e+00       1.47818e+00       1.30312e-04       7.89969e+01
 18.100      2.11222e+02       4.58515e+00       1.50911e+00       1.28277e-04       7.77624e+01
 18.200      2.11223e+02       4.42074e+00       1.53944e+00       1.26266e-04       7.65438e+01
 18.300      2.11228e+02       4.26461e+00       1.56977e+00       1.24279e-04       7.53408e+01
 18.400      2.11238e+02       4.11628e+00       1.60069e+00       1.22313e-04       7.41528e+01
 18.500      2.11255e+02       3.97525e+00       1.63277e+00       1.20368e-04       7.29795e+01
 18.600      2.11281e+02       3.84102e+00       1.66661e+00       1.18442e-04       7.18205e+01
 18.700      2.11317e+02       3.71312e+00       1.70280e+00       1.16534e-04       7.06755e+01
 18.800      2.11365e+02       3.59104e+00       1.74190e+00       1.14643e-04       6.95442e+01
 18.900      2.11425e+02       3.47424e+00       1.78405e+00       1.12768e-04       6.84264e+01
 19.000      2.11497e+02       3.36215e+00       1.82876e+00       1.10911e-04       6.73226e+01
 19.100      2.11580e+02       3.25417e+00       1.87555e+00       1.09073e-04       6.62331e+01
 19.200      2.11673e+02       3.14970e+00       1.92389e+00       1.07256e-04       6.51582e+01
 19.300      2.11777e+02       3.04816e+00       1.97328e+00       1.05460e-04       6.40983e+01
 19.400      2.11889e+02       2.94895e+00       2.02321e+00       1.03686e-04       6.30536e+01
 19.500      2.12011e+02       2.85149e+00       2.07319e+00       1.01935e-04       6.20243e+01
 19.600      2.12140e+02       2.75517e+00       2.12270e+00       1.00208e-04       6.10106e+01
 19.700      2.12276e+02       2.65942e+00       2.17124e+00       9.85058e-05       6.00129e+01
 19.800      2.12419e+02       2.56363e+00       2.21829e+00       9.68291e-05       5.90311e+01
 19.900      2.12568e+02       2.46721e+00       2.26337e+00       9.51785e-05       5.80655e+01
 20.000      2.12722e+02       2.36958e+00       2.30595e+00       9.35547e-05       5.71161e+01
 20.100      2.12880e+02       2.27014e+00       2.34553e+00       9.19579e-05       5.61831e+01
 20.200      2.13043e+02       2.16831e+00       2.38160e+00       9.03888e-05       5.52666e+01
 20.300      2.13208e+02       2.06348e+00       2.41367e+00       8.88477e-05       5.43666e+01
