# Data Source: NASA MERRA (version 2)
# Model Time = 2011-02-04 18:00:00
# Location = [  39.1026,  -84.5123 ]
# Fields = [ Z(km), T(K), U(m/s), V(m/s), R(g/cm3), P(mbar) ]
# Ground Height = 0.165
  0.000      2.73881e+02       7.65259e-01      -6.15809e-01       1.30351e-03       1.02461e+03
  0.100      2.72997e+02       7.98356e-01      -4.11411e-01       1.29140e-03       1.01182e+03
  0.200      2.72165e+02       7.92958e-01      -2.89451e-01       1.27922e-03       9.99215e+02
  0.300      2.71331e+02       7.90134e-01      -1.61979e-01       1.26717e-03       9.86768e+02
  0.400      2.70436e+02       8.30954e-01       5.89525e-02       1.25548e-03       9.74440e+02
  0.500      2.69518e+02       9.62059e-01       4.19152e-01       1.24394e-03       9.62209e+02
  0.600      2.68937e+02       1.24953e+00       8.17371e-01       1.23093e-03       9.50092e+02
  0.700      2.69005e+02       1.72797e+00       1.14781e+00       1.21510e-03       9.38111e+02
  0.800      2.69550e+02       2.28587e+00       1.41729e+00       1.19737e-03       9.26291e+02
  0.900      2.70292e+02       2.79665e+00       1.65810e+00       1.17907e-03       9.14651e+02
  1.000      2.71059e+02       3.25800e+00       1.88400e+00       1.16100e-03       9.03190e+02
  1.100      2.71720e+02       3.70733e+00       2.10270e+00       1.14371e-03       8.91903e+02
  1.200      2.72226e+02       4.14905e+00       2.32543e+00       1.12734e-03       8.80780e+02
  1.300      2.72571e+02       4.56903e+00       2.56537e+00       1.11190e-03       8.69814e+02
  1.400      2.72752e+02       4.95296e+00       2.83574e+00       1.09734e-03       8.58995e+02
  1.500      2.72764e+02       5.28654e+00       3.14974e+00       1.08365e-03       8.48315e+02
  1.600      2.72613e+02       5.56394e+00       3.51362e+00       1.07077e-03       8.37767e+02
  1.700      2.72334e+02       5.80062e+00       3.91630e+00       1.05853e-03       8.27345e+02
  1.800      2.71964e+02       6.01529e+00       4.34398e+00       1.04677e-03       8.17042e+02
  1.900      2.71542e+02       6.22668e+00       4.78287e+00       1.03532e-03       8.06855e+02
  2.000      2.71106e+02       6.45335e+00       5.21915e+00       1.02404e-03       7.96777e+02
  2.100      2.70682e+02       6.70367e+00       5.63631e+00       1.01281e-03       7.86807e+02
  2.200      2.70277e+02       6.96964e+00       6.01353e+00       1.00161e-03       7.76945e+02
  2.300      2.69898e+02       7.24181e+00       6.32960e+00       9.90428e-04       7.67194e+02
  2.400      2.69551e+02       7.51071e+00       6.56330e+00       9.79246e-04       7.57554e+02
  2.500      2.69240e+02       7.76694e+00       6.69350e+00       9.68047e-04       7.48029e+02
  2.600      2.68966e+02       8.01090e+00       6.71193e+00       9.56839e-04       7.38616e+02
  2.700      2.68716e+02       8.26441e+00       6.63835e+00       9.45672e-04       7.29315e+02
  2.800      2.68472e+02       8.55209e+00       6.49624e+00       9.34598e-04       7.20122e+02
  2.900      2.68220e+02       8.89859e+00       6.30909e+00       9.23671e-04       7.11035e+02
  3.000      2.67944e+02       9.32854e+00       6.10038e+00       9.12940e-04       7.02051e+02
  3.100      2.67630e+02       9.86419e+00       5.89251e+00       9.02446e-04       6.93168e+02
  3.200      2.67281e+02       1.05084e+01       5.69910e+00       8.92175e-04       6.84384e+02
  3.300      2.66907e+02       1.12547e+01       5.52952e+00       8.82090e-04       6.75700e+02
  3.400      2.66517e+02       1.20965e+01       5.39309e+00       8.72156e-04       6.67115e+02
  3.500      2.66122e+02       1.30271e+01       5.29914e+00       8.62337e-04       6.58628e+02
  3.600      2.65733e+02       1.40399e+01       5.25701e+00       8.52601e-04       6.50238e+02
  3.700      2.65355e+02       1.51224e+01       5.27218e+00       8.42925e-04       6.41945e+02
  3.800      2.64980e+02       1.62368e+01       5.33340e+00       8.33336e-04       6.33746e+02
  3.900      2.64596e+02       1.73380e+01       5.42488e+00       8.23872e-04       6.25641e+02
  4.000      2.64190e+02       1.83813e+01       5.53080e+00       8.14569e-04       6.17626e+02
  4.100      2.63748e+02       1.93217e+01       5.63537e+00       8.05463e-04       6.09701e+02
  4.200      2.63259e+02       2.01142e+01       5.72277e+00       7.96586e-04       6.01863e+02
  4.300      2.62711e+02       2.07211e+01       5.77797e+00       7.87967e-04       5.94111e+02
  4.400      2.62107e+02       2.11631e+01       5.79215e+00       7.79587e-04       5.86443e+02
  4.500      2.61460e+02       2.14908e+01       5.75964e+00       7.71408e-04       5.78857e+02
  4.600      2.60780e+02       2.17547e+01       5.67481e+00       7.63392e-04       5.71352e+02
  4.700      2.60079e+02       2.20053e+01       5.53201e+00       7.55502e-04       5.63927e+02
  4.800      2.59367e+02       2.22933e+01       5.32559e+00       7.47703e-04       5.56578e+02
  4.900      2.58657e+02       2.26693e+01       5.04992e+00       7.39961e-04       5.49306e+02
  5.000      2.57954e+02       2.31688e+01       4.70892e+00       7.32255e-04       5.42109e+02
  5.100      2.57255e+02       2.37828e+01       4.33527e+00       7.24598e-04       5.34986e+02
  5.200      2.56551e+02       2.44934e+01       3.96702e+00       7.17012e-04       5.27936e+02
  5.300      2.55835e+02       2.52832e+01       3.64224e+00       7.09516e-04       5.20960e+02
  5.400      2.55100e+02       2.61344e+01       3.39899e+00       7.02129e-04       5.14055e+02
  5.500      2.54339e+02       2.70295e+01       3.27532e+00       6.94871e-04       5.07222e+02
  5.600      2.53543e+02       2.79507e+01       3.30930e+00       6.87759e-04       5.00460e+02
  5.700      2.52709e+02       2.88843e+01       3.53141e+00       6.80802e-04       4.93769e+02
  5.800      2.51847e+02       2.98348e+01       3.93487e+00       6.73969e-04       4.87146e+02
  5.900      2.50973e+02       3.08124e+01       4.50147e+00       6.67217e-04       4.80591e+02
  6.000      2.50102e+02       3.18275e+01       5.21300e+00       6.60502e-04       4.74104e+02
  6.100      2.49249e+02       3.28902e+01       6.05124e+00       6.53783e-04       4.67681e+02
  6.200      2.48431e+02       3.40108e+01       6.99799e+00       6.47022e-04       4.61324e+02
  6.300      2.47661e+02       3.51996e+01       8.03505e+00       6.40178e-04       4.55030e+02
  6.400      2.46955e+02       3.64668e+01       9.14420e+00       6.33214e-04       4.48798e+02
  6.500      2.46322e+02       3.78098e+01       1.03109e+01       6.26117e-04       4.42629e+02
  6.600      2.45751e+02       3.91977e+01       1.15286e+01       6.18920e-04       4.36527e+02
  6.700      2.45230e+02       4.05952e+01       1.27921e+01       6.11664e-04       4.30495e+02
  6.800      2.44747e+02       4.19672e+01       1.40961e+01       6.04388e-04       4.24537e+02
  6.900      2.44290e+02       4.32786e+01       1.54352e+01       5.97130e-04       4.18656e+02
  7.000      2.43848e+02       4.44943e+01       1.68042e+01       5.89926e-04       4.12855e+02
  7.100      2.43406e+02       4.55792e+01       1.81977e+01       5.82810e-04       4.07137e+02
  7.200      2.42955e+02       4.64981e+01       1.96105e+01       5.75816e-04       4.01505e+02
  7.300      2.42481e+02       4.72202e+01       2.10364e+01       5.68972e-04       3.95959e+02
  7.400      2.41982e+02       4.77554e+01       2.24606e+01       5.62275e-04       3.90494e+02
  7.500      2.41458e+02       4.81356e+01       2.38640e+01       5.55708e-04       3.85098e+02
  7.600      2.40910e+02       4.83927e+01       2.52272e+01       5.49252e-04       3.79759e+02
  7.700      2.40336e+02       4.85589e+01       2.65310e+01       5.42891e-04       3.74467e+02
  7.800      2.39739e+02       4.86662e+01       2.77560e+01       5.36607e-04       3.69213e+02
  7.900      2.39118e+02       4.87466e+01       2.88829e+01       5.30385e-04       3.63987e+02
  8.000      2.38474e+02       4.88323e+01       2.98926e+01       5.24210e-04       3.58780e+02
  8.100      2.37807e+02       4.89553e+01       3.07656e+01       5.18069e-04       3.53585e+02
  8.200      2.37117e+02       4.91475e+01       3.14829e+01       5.11947e-04       3.48393e+02
  8.300      2.36407e+02       4.94258e+01       3.20382e+01       5.05847e-04       3.43211e+02
  8.400      2.35681e+02       4.97822e+01       3.24468e+01       4.99798e-04       3.38065e+02
  8.500      2.34942e+02       5.02065e+01       3.27260e+01       4.93829e-04       3.32980e+02
  8.600      2.34196e+02       5.06887e+01       3.28928e+01       4.87966e-04       3.27983e+02
  8.700      2.33447e+02       5.12184e+01       3.29645e+01       4.82237e-04       3.23095e+02
  8.800      2.32700e+02       5.17856e+01       3.29582e+01       4.76665e-04       3.18340e+02
  8.900      2.31958e+02       5.23800e+01       3.28913e+01       4.71274e-04       3.13736e+02
  9.000      2.31227e+02       5.29913e+01       3.27809e+01       4.66086e-04       3.09305e+02
  9.100      2.30511e+02       5.36095e+01       3.26441e+01       4.61122e-04       3.05063e+02
  9.200      2.29815e+02       5.42244e+01       3.24983e+01       4.56403e-04       3.01029e+02
  9.300      2.29142e+02       5.48261e+01       3.23590e+01       4.51944e-04       2.97215e+02
  9.400      2.28494e+02       5.54094e+01       3.22284e+01       4.47728e-04       2.93610e+02
  9.500      2.27870e+02       5.59713e+01       3.21008e+01       4.43722e-04       2.90189e+02
  9.600      2.27271e+02       5.65088e+01       3.19710e+01       4.39895e-04       2.86929e+02
  9.700      2.26695e+02       5.70189e+01       3.18335e+01       4.36216e-04       2.83809e+02
  9.800      2.26144e+02       5.74987e+01       3.16828e+01       4.32655e-04       2.80807e+02
  9.900      2.25615e+02       5.79452e+01       3.15134e+01       4.29184e-04       2.77904e+02
 10.000      2.25110e+02       5.83553e+01       3.13199e+01       4.25775e-04       2.75079e+02
 10.100      2.24628e+02       5.87262e+01       3.10968e+01       4.22401e-04       2.72314e+02
 10.200      2.24168e+02       5.90548e+01       3.08387e+01       4.19036e-04       2.69592e+02
 10.300      2.23730e+02       5.93382e+01       3.05401e+01       4.15656e-04       2.66895e+02
 10.400      2.23314e+02       5.95734e+01       3.01955e+01       4.12236e-04       2.64207e+02
 10.500      2.22920e+02       5.97574e+01       2.97996e+01       4.08752e-04       2.61512e+02
 10.600      2.22547e+02       5.98873e+01       2.93468e+01       4.05183e-04       2.58794e+02
 10.700      2.22195e+02       5.99600e+01       2.88317e+01       4.01506e-04       2.56040e+02
 10.800      2.21864e+02       5.99727e+01       2.82488e+01       3.97701e-04       2.53236e+02
 10.900      2.21553e+02       5.99222e+01       2.75928e+01       3.93748e-04       2.50368e+02
 11.000      2.21262e+02       5.98071e+01       2.68600e+01       3.89633e-04       2.47425e+02
 11.100      2.20990e+02       5.96331e+01       2.60587e+01       3.85357e-04       2.44409e+02
 11.200      2.20734e+02       5.94093e+01       2.52015e+01       3.80929e-04       2.41321e+02
 11.300      2.20494e+02       5.91443e+01       2.43007e+01       3.76361e-04       2.38167e+02
 11.400      2.20267e+02       5.88470e+01       2.33689e+01       3.71659e-04       2.34950e+02
 11.500      2.20051e+02       5.85262e+01       2.24186e+01       3.66835e-04       2.31674e+02
 11.600      2.19846e+02       5.81907e+01       2.14622e+01       3.61898e-04       2.28342e+02
 11.700      2.19648e+02       5.78492e+01       2.05122e+01       3.56856e-04       2.24958e+02
 11.800      2.19457e+02       5.75107e+01       1.95811e+01       3.51718e-04       2.21527e+02
 11.900      2.19271e+02       5.71839e+01       1.86815e+01       3.46495e-04       2.18052e+02
 12.000      2.19088e+02       5.68776e+01       1.78256e+01       3.41195e-04       2.14537e+02
 12.100      2.18906e+02       5.66006e+01       1.70261e+01       3.35826e-04       2.10986e+02
 12.200      2.18724e+02       5.63617e+01       1.62955e+01       3.30397e-04       2.07402e+02
 12.300      2.18539e+02       5.61698e+01       1.56461e+01       3.24917e-04       2.03790e+02
 12.400      2.18350e+02       5.60336e+01       1.50905e+01       3.19394e-04       2.00153e+02
 12.500      2.18157e+02       5.59591e+01       1.46377e+01       3.13837e-04       1.96496e+02
 12.600      2.17957e+02       5.59391e+01       1.42812e+01       3.08264e-04       1.92831e+02
 12.700      2.17753e+02       5.59630e+01       1.40097e+01       3.02695e-04       1.89170e+02
 12.800      2.17545e+02       5.60199e+01       1.38123e+01       2.97146e-04       1.85524e+02
 12.900      2.17332e+02       5.60990e+01       1.36779e+01       2.91633e-04       1.81905e+02
 13.000      2.17116e+02       5.61896e+01       1.35954e+01       2.86174e-04       1.78322e+02
 13.100      2.16897e+02       5.62808e+01       1.35538e+01       2.80781e-04       1.74784e+02
 13.200      2.16675e+02       5.63620e+01       1.35419e+01       2.75467e-04       1.71301e+02
 13.300      2.16451e+02       5.64223e+01       1.35488e+01       2.70246e-04       1.67881e+02
 13.400      2.16224e+02       5.64509e+01       1.35633e+01       2.65128e-04       1.64529e+02
 13.500      2.15997e+02       5.64371e+01       1.35744e+01       2.60124e-04       1.61254e+02
 13.600      2.15768e+02       5.63700e+01       1.35710e+01       2.55243e-04       1.58060e+02
 13.700      2.15539e+02       5.62390e+01       1.35421e+01       2.50493e-04       1.54954e+02
 13.800      2.15309e+02       5.60331e+01       1.34765e+01       2.45883e-04       1.51940e+02
 13.900      2.15080e+02       5.57418e+01       1.33634e+01       2.41418e-04       1.49022e+02
 14.000      2.14851e+02       5.53604e+01       1.31972e+01       2.37101e-04       1.46202e+02
 14.100      2.14623e+02       5.48934e+01       1.29808e+01       2.32924e-04       1.43474e+02
 14.200      2.14396e+02       5.43461e+01       1.27180e+01       2.28880e-04       1.40834e+02
 14.300      2.14170e+02       5.37239e+01       1.24123e+01       2.24961e-04       1.38277e+02
 14.400      2.13946e+02       5.30321e+01       1.20674e+01       2.21161e-04       1.35798e+02
 14.500      2.13723e+02       5.22759e+01       1.16868e+01       2.17474e-04       1.33395e+02
 14.600      2.13502e+02       5.14607e+01       1.12743e+01       2.13892e-04       1.31063e+02
 14.700      2.13283e+02       5.05919e+01       1.08335e+01       2.10412e-04       1.28798e+02
 14.800      2.13067e+02       4.96747e+01       1.03680e+01       2.07027e-04       1.26597e+02
 14.900      2.12852e+02       4.87145e+01       9.88147e+00       2.03731e-04       1.24456e+02
 15.000      2.12640e+02       4.77165e+01       9.37749e+00       2.00521e-04       1.22373e+02
 15.100      2.12431e+02       4.66861e+01       8.85973e+00       1.97390e-04       1.20344e+02
 15.200      2.12225e+02       4.56286e+01       8.33181e+00       1.94336e-04       1.18367e+02
 15.300      2.12023e+02       4.45492e+01       7.79738e+00       1.91352e-04       1.16439e+02
 15.400      2.11823e+02       4.34535e+01       7.26008e+00       1.88436e-04       1.14556e+02
 15.500      2.11627e+02       4.23466e+01       6.72352e+00       1.85583e-04       1.12718e+02
 15.600      2.11435e+02       4.12338e+01       6.19135e+00       1.82790e-04       1.10920e+02
 15.700      2.11247e+02       4.01205e+01       5.66721e+00       1.80053e-04       1.09162e+02
 15.800      2.11063e+02       3.90120e+01       5.15472e+00       1.77368e-04       1.07441e+02
 15.900      2.10884e+02       3.79137e+01       4.65753e+00       1.74733e-04       1.05755e+02
 16.000      2.10709e+02       3.68307e+01       4.17927e+00       1.72144e-04       1.04101e+02
 16.100      2.10539e+02       3.57685e+01       3.72357e+00       1.69598e-04       1.02479e+02
 16.200      2.10374e+02       3.47323e+01       3.29407e+00       1.67093e-04       1.00886e+02
 16.300      2.10214e+02       3.37275e+01       2.89433e+00       1.64626e-04       9.93214e+01
 16.400      2.10059e+02       3.27564e+01       2.52559e+00       1.62195e-04       9.77826e+01
 16.500      2.09910e+02       3.18183e+01       2.18633e+00       1.59798e-04       9.62692e+01
 16.600      2.09766e+02       3.09124e+01       1.87489e+00       1.57435e-04       9.47803e+01
 16.700      2.09628e+02       3.00376e+01       1.58959e+00       1.55103e-04       9.33151e+01
 16.800      2.09495e+02       2.91931e+01       1.32877e+00       1.52803e-04       9.18726e+01
 16.900      2.09367e+02       2.83779e+01       1.09075e+00       1.50532e-04       9.04522e+01
 17.000      2.09244e+02       2.75910e+01       8.73856e-01       1.48290e-04       8.90529e+01
 17.100      2.09127e+02       2.68316e+01       6.76429e-01       1.46076e-04       8.76742e+01
 17.200      2.09015e+02       2.60988e+01       4.96794e-01       1.43889e-04       8.63153e+01
 17.300      2.08909e+02       2.53915e+01       3.33282e-01       1.41728e-04       8.49755e+01
 17.400      2.08808e+02       2.47089e+01       1.84217e-01       1.39591e-04       8.36542e+01
 17.500      2.08713e+02       2.40501e+01       4.79308e-02       1.37479e-04       8.23507e+01
 17.600      2.08623e+02       2.34140e+01      -7.72466e-02       1.35390e-04       8.10646e+01
 17.700      2.08538e+02       2.27998e+01      -1.92986e-01       1.33324e-04       7.97952e+01
 17.800      2.08459e+02       2.22065e+01      -3.00956e-01       1.31280e-04       7.85419e+01
 17.900      2.08385e+02       2.16332e+01      -4.02831e-01       1.29257e-04       7.73043e+01
 18.000      2.08317e+02       2.10791e+01      -5.00281e-01       1.27255e-04       7.60819e+01
 18.100      2.08254e+02       2.05430e+01      -5.94976e-01       1.25273e-04       7.48742e+01
 18.200      2.08197e+02       2.00242e+01      -6.88585e-01       1.23310e-04       7.36808e+01
 18.300      2.08145e+02       1.95217e+01      -7.82779e-01       1.21366e-04       7.25012e+01
 18.400      2.08099e+02       1.90345e+01      -8.79232e-01       1.19440e-04       7.13350e+01
 18.500      2.08058e+02       1.85617e+01      -9.79612e-01       1.17533e-04       7.01819e+01
 18.600      2.08023e+02       1.81024e+01      -1.08543e+00       1.15643e-04       6.90416e+01
 18.700      2.07993e+02       1.76558e+01      -1.19717e+00       1.13771e-04       6.79144e+01
 18.800      2.07969e+02       1.72209e+01      -1.31490e+00       1.11918e-04       6.68007e+01
 18.900      2.07951e+02       1.67969e+01      -1.43868e+00       1.10085e-04       6.57010e+01
 19.000      2.07938e+02       1.63828e+01      -1.56859e+00       1.08273e-04       6.46156e+01
 19.100      2.07931e+02       1.59780e+01      -1.70470e+00       1.06483e-04       6.35450e+01
 19.200      2.07929e+02       1.55813e+01      -1.84706e+00       1.04715e-04       6.24895e+01
 19.300      2.07934e+02       1.51921e+01      -1.99576e+00       1.02970e-04       6.14493e+01
 19.400      2.07944e+02       1.48094e+01      -2.15085e+00       1.01248e-04       6.04248e+01
 19.500      2.07960e+02       1.44324e+01      -2.31241e+00       9.95506e-05       5.94161e+01
 19.600      2.07981e+02       1.40601e+01      -2.48051e+00       9.78775e-05       5.84236e+01
 19.700      2.08008e+02       1.36918e+01      -2.65521e+00       9.62293e-05       5.74474e+01
 19.800      2.08042e+02       1.33265e+01      -2.83658e+00       9.46066e-05       5.64877e+01
 19.900      2.08081e+02       1.29635e+01      -3.02469e+00       9.30094e-05       5.55445e+01
 20.000      2.08126e+02       1.26017e+01      -3.21961e+00       9.14383e-05       5.46181e+01
 20.100      2.08177e+02       1.22403e+01      -3.42140e+00       8.98935e-05       5.37085e+01
 20.200      2.08234e+02       1.18786e+01      -3.63014e+00       8.83751e-05       5.28157e+01
 20.300      2.08297e+02       1.15155e+01      -3.84589e+00       8.68834e-05       5.19399e+01
