# Data Source: NASA MERRA (version 1)
# Model Time = 2010-02-14 18:00:00
# Location = [  39.7393, -104.9900 ]
# Fields = [ Z(km), T(K), U(m/s), V(m/s), R(g/cm3), P(mbar) ]
# Ground Height = 1.589
  0.000      2.78651e+02       1.94082e+00      -2.10001e+00       1.29037e-03       1.03195e+03
  0.100      2.78012e+02       1.93214e+00      -2.08767e+00       1.27745e-03       1.01927e+03
  0.200      2.77375e+02       1.89729e+00      -2.05238e+00       1.26468e-03       1.00677e+03
  0.300      2.76739e+02       1.85319e+00      -2.00899e+00       1.25205e-03       9.94426e+02
  0.400      2.76102e+02       1.81675e+00      -1.97232e+00       1.23954e-03       9.82229e+02
  0.500      2.75462e+02       1.80435e+00      -1.95681e+00       1.22716e-03       9.70167e+02
  0.600      2.74823e+02       1.81121e+00      -1.96194e+00       1.21488e-03       9.58229e+02
  0.700      2.74188e+02       1.80562e+00      -1.96810e+00       1.20266e-03       9.46401e+02
  0.800      2.73553e+02       1.77778e+00      -1.97124e+00       1.19053e-03       9.34678e+02
  0.900      2.72887e+02       1.75754e+00      -1.99539e+00       1.17861e-03       9.23075e+02
  1.000      2.72185e+02       1.76283e+00      -2.03753e+00       1.16696e-03       9.11597e+02
  1.100      2.71494e+02       1.77314e+00      -2.02180e+00       1.15536e-03       9.00240e+02
  1.200      2.70859e+02       1.76770e+00      -1.88799e+00       1.14360e-03       8.88996e+02
  1.300      2.70263e+02       1.74928e+00      -1.68924e+00       1.13177e-03       8.77865e+02
  1.400      2.69676e+02       1.72692e+00      -1.50891e+00       1.12000e-03       8.66846e+02
  1.500      2.69065e+02       1.70965e+00      -1.43037e+00       1.10842e-03       8.55940e+02
  1.600      2.68400e+02       1.70624e+00      -1.53503e+00       1.09715e-03       8.45146e+02
  1.700      2.67670e+02       1.71708e+00      -1.84763e+00       1.08624e-03       8.34462e+02
  1.800      2.66889e+02       1.73311e+00      -2.32843e+00       1.07561e-03       8.23886e+02
  1.900      2.66073e+02       1.74472e+00      -2.93424e+00       1.06519e-03       8.13414e+02
  2.000      2.65236e+02       1.74233e+00      -3.62183e+00       1.05493e-03       8.03043e+02
  2.100      2.64393e+02       1.71867e+00      -4.34924e+00       1.04476e-03       7.92769e+02
  2.200      2.63553e+02       1.69009e+00      -5.08694e+00       1.03464e-03       7.82594e+02
  2.300      2.62722e+02       1.68668e+00      -5.81267e+00       1.02454e-03       7.72517e+02
  2.400      2.61908e+02       1.73872e+00      -6.50424e+00       1.01445e-03       7.62539e+02
  2.500      2.61117e+02       1.87648e+00      -7.13950e+00       1.00434e-03       7.52661e+02
  2.600      2.60355e+02       2.12661e+00      -7.69971e+00       9.94198e-04       7.42884e+02
  2.700      2.59627e+02       2.48204e+00      -8.19839e+00       9.84001e-04       7.33208e+02
  2.800      2.58936e+02       2.91728e+00      -8.66664e+00       9.73743e-04       7.23632e+02
  2.900      2.58285e+02       3.40666e+00      -9.13575e+00       9.63414e-04       7.14159e+02
  3.000      2.57679e+02       3.92452e+00      -9.63698e+00       9.53008e-04       7.04786e+02
  3.100      2.57120e+02       4.44552e+00      -1.02005e+01       9.42518e-04       6.95516e+02
  3.200      2.56601e+02       4.95284e+00      -1.08278e+01       9.31975e-04       6.86347e+02
  3.300      2.56102e+02       5.43850e+00      -1.14910e+01       9.21450e-04       6.77279e+02
  3.400      2.55606e+02       5.89490e+00      -1.21604e+01       9.11014e-04       6.68312e+02
  3.500      2.55094e+02       6.31448e+00      -1.28067e+01       9.00734e-04       6.59445e+02
  3.600      2.54545e+02       6.68964e+00      -1.34005e+01       8.90675e-04       6.50678e+02
  3.700      2.53946e+02       7.01436e+00      -1.39187e+01       8.80884e-04       6.42010e+02
  3.800      2.53300e+02       7.29026e+00      -1.43716e+01       8.71339e-04       6.33439e+02
  3.900      2.52620e+02       7.52145e+00      -1.47797e+01       8.61993e-04       6.24962e+02
  4.000      2.51916e+02       7.71201e+00      -1.51636e+01       8.52804e-04       6.16577e+02
  4.100      2.51200e+02       7.86601e+00      -1.55439e+01       8.43730e-04       6.08282e+02
  4.200      2.50483e+02       7.98755e+00      -1.59412e+01       8.34729e-04       6.00074e+02
  4.300      2.49774e+02       8.07962e+00      -1.63707e+01       8.25768e-04       5.91952e+02
  4.400      2.49076e+02       8.14065e+00      -1.68259e+01       8.16839e-04       5.83915e+02
  4.500      2.48390e+02       8.16793e+00      -1.72946e+01       8.07942e-04       5.75964e+02
  4.600      2.47716e+02       8.15875e+00      -1.77645e+01       7.99076e-04       5.68100e+02
  4.700      2.47057e+02       8.11039e+00      -1.82236e+01       7.90239e-04       5.60323e+02
  4.800      2.46413e+02       8.02013e+00      -1.86595e+01       7.81431e-04       5.52632e+02
  4.900      2.45785e+02       7.88650e+00      -1.90618e+01       7.72651e-04       5.45029e+02
  5.000      2.45172e+02       7.72303e+00      -1.94411e+01       7.63898e-04       5.37513e+02
  5.100      2.44576e+02       7.55324e+00      -1.98220e+01       7.55175e-04       5.30083e+02
  5.200      2.43997e+02       7.40085e+00      -2.02293e+01       7.46481e-04       5.22739e+02
  5.300      2.43434e+02       7.28955e+00      -2.06878e+01       7.37818e-04       5.15480e+02
  5.400      2.42887e+02       7.24305e+00      -2.12224e+01       7.29187e-04       5.08306e+02
  5.500      2.42357e+02       7.28505e+00      -2.18578e+01       7.20588e-04       5.01216e+02
  5.600      2.41844e+02       7.43606e+00      -2.26145e+01       7.12023e-04       4.94209e+02
  5.700      2.41346e+02       7.69484e+00      -2.34826e+01       7.03496e-04       4.87285e+02
  5.800      2.40863e+02       8.05110e+00      -2.44400e+01       6.95010e-04       4.80445e+02
  5.900      2.40394e+02       8.49457e+00      -2.54645e+01       6.86571e-04       4.73687e+02
  6.000      2.39938e+02       9.01495e+00      -2.65336e+01       6.78184e-04       4.67012e+02
  6.100      2.39493e+02       9.60194e+00      -2.76252e+01       6.69851e-04       4.60419e+02
  6.200      2.39059e+02       1.02453e+01      -2.87170e+01       6.61577e-04       4.53907e+02
  6.300      2.38634e+02       1.09346e+01      -2.97869e+01       6.53367e-04       4.47478e+02
  6.400      2.38216e+02       1.16589e+01      -3.08239e+01       6.45227e-04       4.41129e+02
  6.500      2.37801e+02       1.24063e+01      -3.18310e+01       6.37168e-04       4.34860e+02
  6.600      2.37384e+02       1.31646e+01      -3.28126e+01       6.29200e-04       4.28669e+02
  6.700      2.36961e+02       1.39219e+01      -3.37727e+01       6.21335e-04       4.22556e+02
  6.800      2.36526e+02       1.46662e+01      -3.47156e+01       6.13582e-04       4.16518e+02
  6.900      2.36077e+02       1.53853e+01      -3.56453e+01       6.05951e-04       4.10556e+02
  7.000      2.35607e+02       1.60673e+01      -3.65662e+01       5.98449e-04       4.04667e+02
  7.100      2.35113e+02       1.67002e+01      -3.74823e+01       5.91087e-04       3.98851e+02
  7.200      2.34593e+02       1.72778e+01      -3.83947e+01       5.83866e-04       3.93106e+02
  7.300      2.34047e+02       1.78067e+01      -3.92981e+01       5.76779e-04       3.87431e+02
  7.400      2.33480e+02       1.82953e+01      -4.01858e+01       5.69816e-04       3.81826e+02
  7.500      2.32894e+02       1.87522e+01      -4.10514e+01       5.62966e-04       3.76290e+02
  7.600      2.32291e+02       1.91858e+01      -4.18884e+01       5.56222e-04       3.70820e+02
  7.700      2.31675e+02       1.96046e+01      -4.26905e+01       5.49575e-04       3.65417e+02
  7.800      2.31048e+02       2.00169e+01      -4.34510e+01       5.43016e-04       3.60078e+02
  7.900      2.30414e+02       2.04312e+01      -4.41636e+01       5.36536e-04       3.54804e+02
  8.000      2.29774e+02       2.08560e+01      -4.48218e+01       5.30128e-04       3.49593e+02
  8.100      2.29131e+02       2.12961e+01      -4.54197e+01       5.23786e-04       3.44445e+02
  8.200      2.28487e+02       2.17441e+01      -4.59538e+01       5.17505e-04       3.39358e+02
  8.300      2.27843e+02       2.21907e+01      -4.64206e+01       5.11283e-04       3.34332e+02
  8.400      2.27199e+02       2.26263e+01      -4.68170e+01       5.05115e-04       3.29367e+02
  8.500      2.26558e+02       2.30414e+01      -4.71397e+01       4.99000e-04       3.24461e+02
  8.600      2.25921e+02       2.34266e+01      -4.73854e+01       4.92933e-04       3.19614e+02
  8.700      2.25287e+02       2.37723e+01      -4.75508e+01       4.86913e-04       3.14825e+02
  8.800      2.24660e+02       2.40691e+01      -4.76327e+01       4.80936e-04       3.10095e+02
  8.900      2.24039e+02       2.43074e+01      -4.76278e+01       4.75000e-04       3.05421e+02
  9.000      2.23427e+02       2.44778e+01      -4.75328e+01       4.69102e-04       3.00804e+02
  9.100      2.22824e+02       2.45724e+01      -4.73451e+01       4.63239e-04       2.96243e+02
  9.200      2.22234e+02       2.45948e+01      -4.70659e+01       4.57406e-04       2.91739e+02
  9.300      2.21663e+02       2.45534e+01      -4.66985e+01       4.51593e-04       2.87291e+02
  9.400      2.21115e+02       2.44565e+01      -4.62458e+01       4.45794e-04       2.82900e+02
  9.500      2.20594e+02       2.43125e+01      -4.57109e+01       4.40002e-04       2.78568e+02
  9.600      2.20107e+02       2.41297e+01      -4.50970e+01       4.34209e-04       2.74293e+02
  9.700      2.19658e+02       2.39166e+01      -4.44071e+01       4.28409e-04       2.70076e+02
  9.800      2.19250e+02       2.36814e+01      -4.36441e+01       4.22596e-04       2.65918e+02
  9.900      2.18891e+02       2.34327e+01      -4.28114e+01       4.16765e-04       2.61819e+02
 10.000      2.18584e+02       2.31786e+01      -4.19118e+01       4.10910e-04       2.57779e+02
 10.100      2.18334e+02       2.29276e+01      -4.09485e+01       4.05027e-04       2.53797e+02
 10.200      2.18146e+02       2.26881e+01      -3.99246e+01       3.99111e-04       2.49875e+02
 10.300      2.18022e+02       2.24664e+01      -3.88444e+01       3.93162e-04       2.46011e+02
 10.400      2.17958e+02       2.22619e+01      -3.77169e+01       3.87195e-04       2.42206e+02
 10.500      2.17947e+02       2.20720e+01      -3.65522e+01       3.81225e-04       2.38459e+02
 10.600      2.17980e+02       2.18945e+01      -3.53603e+01       3.75268e-04       2.34769e+02
 10.700      2.18052e+02       2.17269e+01      -3.41513e+01       3.69339e-04       2.31135e+02
 10.800      2.18155e+02       2.15669e+01      -3.29353e+01       3.63452e-04       2.27559e+02
 10.900      2.18281e+02       2.14120e+01      -3.17222e+01       3.57620e-04       2.24037e+02
 11.000      2.18424e+02       2.12600e+01      -3.05223e+01       3.51856e-04       2.20571e+02
 11.100      2.18578e+02       2.11084e+01      -2.93455e+01       3.46171e-04       2.17159e+02
 11.200      2.18733e+02       2.09548e+01      -2.82018e+01       3.40576e-04       2.13801e+02
 11.300      2.18885e+02       2.07969e+01      -2.71015e+01       3.35080e-04       2.10497e+02
 11.400      2.19024e+02       2.06322e+01      -2.60544e+01       3.29693e-04       2.07245e+02
 11.500      2.19145e+02       2.04584e+01      -2.50707e+01       3.24424e-04       2.04045e+02
 11.600      2.19241e+02       2.02732e+01      -2.41605e+01       3.19279e-04       2.00897e+02
 11.700      2.19304e+02       2.00743e+01      -2.33328e+01       3.14267e-04       1.97800e+02
 11.800      2.19333e+02       1.98618e+01      -2.25873e+01       3.09383e-04       1.94752e+02
 11.900      2.19333e+02       1.96370e+01      -2.19182e+01       3.04620e-04       1.91754e+02
 12.000      2.19305e+02       1.94015e+01      -2.13198e+01       2.99970e-04       1.88803e+02
 12.100      2.19252e+02       1.91564e+01      -2.07862e+01       2.95428e-04       1.85899e+02
 12.200      2.19176e+02       1.89032e+01      -2.03116e+01       2.90986e-04       1.83041e+02
 12.300      2.19081e+02       1.86432e+01      -1.98903e+01       2.86637e-04       1.80227e+02
 12.400      2.18969e+02       1.83778e+01      -1.95164e+01       2.82376e-04       1.77457e+02
 12.500      2.18842e+02       1.81084e+01      -1.91841e+01       2.78197e-04       1.74729e+02
 12.600      2.18704e+02       1.78364e+01      -1.88876e+01       2.74095e-04       1.72044e+02
 12.700      2.18557e+02       1.75630e+01      -1.86211e+01       2.70064e-04       1.69400e+02
 12.800      2.18403e+02       1.72897e+01      -1.83788e+01       2.66100e-04       1.66795e+02
 12.900      2.18245e+02       1.70179e+01      -1.81549e+01       2.62197e-04       1.64231e+02
 13.000      2.18086e+02       1.67488e+01      -1.79436e+01       2.58351e-04       1.61704e+02
 13.100      2.17929e+02       1.64839e+01      -1.77390e+01       2.54558e-04       1.59215e+02
 13.200      2.17776e+02       1.62245e+01      -1.75354e+01       2.50814e-04       1.56763e+02
 13.300      2.17630e+02       1.59720e+01      -1.73270e+01       2.47115e-04       1.54348e+02
 13.400      2.17494e+02       1.57278e+01      -1.71079e+01       2.43456e-04       1.51967e+02
 13.500      2.17370e+02       1.54932e+01      -1.68724e+01       2.39836e-04       1.49622e+02
 13.600      2.17259e+02       1.52692e+01      -1.66167e+01       2.36251e-04       1.47310e+02
 13.700      2.17162e+02       1.50557e+01      -1.63417e+01       2.32701e-04       1.45033e+02
 13.800      2.17078e+02       1.48524e+01      -1.60495e+01       2.29190e-04       1.42788e+02
 13.900      2.17005e+02       1.46593e+01      -1.57418e+01       2.25716e-04       1.40577e+02
 14.000      2.16942e+02       1.44759e+01      -1.54206e+01       2.22282e-04       1.38398e+02
 14.100      2.16889e+02       1.43021e+01      -1.50876e+01       2.18887e-04       1.36251e+02
 14.200      2.16845e+02       1.41378e+01      -1.47447e+01       2.15534e-04       1.34137e+02
 14.300      2.16809e+02       1.39825e+01      -1.43938e+01       2.12222e-04       1.32053e+02
 14.400      2.16779e+02       1.38362e+01      -1.40367e+01       2.08953e-04       1.30001e+02
 14.500      2.16755e+02       1.36986e+01      -1.36754e+01       2.05726e-04       1.27980e+02
 14.600      2.16736e+02       1.35695e+01      -1.33115e+01       2.02543e-04       1.25988e+02
 14.700      2.16721e+02       1.34486e+01      -1.29471e+01       1.99404e-04       1.24027e+02
 14.800      2.16710e+02       1.33357e+01      -1.25840e+01       1.96309e-04       1.22096e+02
 14.900      2.16700e+02       1.32306e+01      -1.22239e+01       1.93259e-04       1.20193e+02
 15.000      2.16691e+02       1.31331e+01      -1.18688e+01       1.90254e-04       1.18320e+02
 15.100      2.16683e+02       1.30429e+01      -1.15206e+01       1.87295e-04       1.16475e+02
 15.200      2.16674e+02       1.29598e+01      -1.11810e+01       1.84381e-04       1.14658e+02
 15.300      2.16663e+02       1.28836e+01      -1.08520e+01       1.81513e-04       1.12869e+02
 15.400      2.16650e+02       1.28141e+01      -1.05353e+01       1.78691e-04       1.11108e+02
 15.500      2.16633e+02       1.27510e+01      -1.02329e+01       1.75916e-04       1.09373e+02
 15.600      2.16612e+02       1.26941e+01      -9.94664e+00       1.73186e-04       1.07666e+02
 15.700      2.16585e+02       1.26431e+01      -9.67832e+00       1.70502e-04       1.05984e+02
 15.800      2.16552e+02       1.25980e+01      -9.42981e+00       1.67865e-04       1.04329e+02
 15.900      2.16512e+02       1.25583e+01      -9.20298e+00       1.65274e-04       1.02699e+02
 16.000      2.16464e+02       1.25240e+01      -8.99968e+00       1.62729e-04       1.01095e+02
 16.100      2.16406e+02       1.24947e+01      -8.82174e+00       1.60229e-04       9.95162e+01
 16.200      2.16339e+02       1.24700e+01      -8.66957e+00       1.57775e-04       9.79618e+01
 16.300      2.16264e+02       1.24489e+01      -8.54121e+00       1.55365e-04       9.64316e+01
 16.400      2.16180e+02       1.24304e+01      -8.43446e+00       1.52997e-04       9.49252e+01
 16.500      2.16090e+02       1.24134e+01      -8.34713e+00       1.50670e-04       9.34422e+01
 16.600      2.15994e+02       1.23970e+01      -8.27705e+00       1.48382e-04       9.19823e+01
 16.700      2.15892e+02       1.23801e+01      -8.22200e+00       1.46132e-04       9.05449e+01
 16.800      2.15786e+02       1.23617e+01      -8.17981e+00       1.43919e-04       8.91299e+01
 16.900      2.15677e+02       1.23408e+01      -8.14829e+00       1.41741e-04       8.77367e+01
 17.000      2.15565e+02       1.23164e+01      -8.12524e+00       1.39597e-04       8.63650e+01
 17.100      2.15451e+02       1.22875e+01      -8.10848e+00       1.37487e-04       8.50144e+01
 17.200      2.15337e+02       1.22530e+01      -8.09581e+00       1.35408e-04       8.36846e+01
 17.300      2.15222e+02       1.22120e+01      -8.08505e+00       1.33361e-04       8.23753e+01
 17.400      2.15109e+02       1.21634e+01      -8.07400e+00       1.31343e-04       8.10860e+01
 17.500      2.14997e+02       1.21062e+01      -8.06048e+00       1.29354e-04       7.98165e+01
 17.600      2.14887e+02       1.20394e+01      -8.04230e+00       1.27393e-04       7.85665e+01
 17.700      2.14781e+02       1.19620e+01      -8.01726e+00       1.25459e-04       7.73355e+01
 17.800      2.14679e+02       1.18729e+01      -7.98318e+00       1.23551e-04       7.61234e+01
 17.900      2.14583e+02       1.17712e+01      -7.93786e+00       1.21668e-04       7.49297e+01
 18.000      2.14492e+02       1.16559e+01      -7.87912e+00       1.19810e-04       7.37542e+01
 18.100      2.14409e+02       1.15259e+01      -7.80476e+00       1.17976e-04       7.25966e+01
 18.200      2.14333e+02       1.13801e+01      -7.71260e+00       1.16164e-04       7.14566e+01
 18.300      2.14266e+02       1.12177e+01      -7.60045e+00       1.14375e-04       7.03340e+01
 18.400      2.14208e+02       1.10377e+01      -7.46635e+00       1.12607e-04       6.92283e+01
 18.500      2.14160e+02       1.08408e+01      -7.31080e+00       1.10861e-04       6.81395e+01
 18.600      2.14120e+02       1.06285e+01      -7.13576e+00       1.09137e-04       6.70674e+01
 18.700      2.14090e+02       1.04024e+01      -6.94318e+00       1.07435e-04       6.60118e+01
 18.800      2.14067e+02       1.01641e+01      -6.73505e+00       1.05755e-04       6.49727e+01
 18.900      2.14051e+02       9.91508e+00      -6.51333e+00       1.04097e-04       6.39498e+01
 19.000      2.14043e+02       9.65697e+00      -6.27998e+00       1.02462e-04       6.29430e+01
 19.100      2.14042e+02       9.39132e+00      -6.03698e+00       1.00850e-04       6.19522e+01
 19.200      2.14046e+02       9.11970e+00      -5.78629e+00       9.92607e-05       6.09771e+01
 19.300      2.14057e+02       8.84366e+00      -5.52988e+00       9.76942e-05       6.00177e+01
 19.400      2.14072e+02       8.56478e+00      -5.26972e+00       9.61507e-05       5.90738e+01
 19.500      2.14093e+02       8.28461e+00      -5.00778e+00       9.46302e-05       5.81451e+01
 19.600      2.14117e+02       8.00472e+00      -4.74602e+00       9.31328e-05       5.72317e+01
 19.700      2.14146e+02       7.72668e+00      -4.48642e+00       9.16585e-05       5.63332e+01
 19.800      2.14178e+02       7.45205e+00      -4.23094e+00       9.02072e-05       5.54495e+01
 19.900      2.14213e+02       7.18240e+00      -3.98155e+00       8.87790e-05       5.45804e+01
 20.000      2.14250e+02       6.91929e+00      -3.74022e+00       8.73737e-05       5.37259e+01
 20.100      2.14289e+02       6.66429e+00      -3.50891e+00       8.59914e-05       5.28856e+01
 20.200      2.14330e+02       6.41896e+00      -3.28960e+00       8.46320e-05       5.20594e+01
 20.300      2.14372e+02       6.18487e+00      -3.08425e+00       8.32954e-05       5.12473e+01
