# Data Source: NASA GEOS5 Near-Real-Time
# Model Time = 2010-09-20 18:00:00
# Location = [  39.7393, -104.9900 ]
# Fields = [ Z(km), T(K), U(m/s), V(m/s), R(g/cm3), P(mbar) ]
# Ground Height = 1.589
  0.000      3.12757e+02       5.26841e+00       2.27798e+00       1.11830e-03       1.00380e+03
  0.100      3.12146e+02       5.25506e+00       2.26654e+00       1.10740e-03       9.92071e+02
  0.200      3.11522e+02       5.24663e+00       2.26018e+00       1.09666e-03       9.80487e+02
  0.300      3.10867e+02       5.24968e+00       2.26506e+00       1.08616e-03       9.69064e+02
  0.400      3.10190e+02       5.25593e+00       2.26010e+00       1.07588e-03       9.57801e+02
  0.500      3.09522e+02       5.24335e+00       2.19918e+00       1.06570e-03       9.46687e+02
  0.600      3.08876e+02       5.20673e+00       2.09116e+00       1.05555e-03       9.35713e+02
  0.700      3.08232e+02       5.17048e+00       2.04003e+00       1.04551e-03       9.24883e+02
  0.800      3.07573e+02       5.15711e+00       2.11997e+00       1.03565e-03       9.14199e+02
  0.900      3.06898e+02       5.17086e+00       2.25410e+00       1.02595e-03       9.03657e+02
  1.000      3.06215e+02       5.20950e+00       2.33540e+00       1.01640e-03       8.93250e+02
  1.100      3.05553e+02       5.24558e+00       2.33689e+00       1.00689e-03       8.82981e+02
  1.200      3.04959e+02       5.23480e+00       2.28548e+00       9.97280e-04       8.72850e+02
  1.300      3.04437e+02       5.16687e+00       2.20710e+00       9.87557e-04       8.62861e+02
  1.400      3.03901e+02       5.10525e+00       2.12344e+00       9.78005e-04       8.53013e+02
  1.500      3.03263e+02       5.11787e+00       2.05414e+00       9.68909e-04       8.43304e+02
  1.600      3.02507e+02       5.21876e+00       2.00328e+00       9.60294e-04       8.33722e+02
  1.700      3.01664e+02       5.38936e+00       1.96548e+00       9.52033e-04       8.24248e+02
  1.800      3.00767e+02       5.60841e+00       1.93370e+00       9.44006e-04       8.14868e+02
  1.900      2.99842e+02       5.84741e+00       1.89609e+00       9.36126e-04       8.05580e+02
  2.000      2.98914e+02       6.07684e+00       1.84003e+00       9.28315e-04       7.96387e+02
  2.100      2.97997e+02       6.28063e+00       1.76192e+00       9.20530e-04       7.87285e+02
  2.200      2.97087e+02       6.46055e+00       1.67000e+00       9.12779e-04       7.78272e+02
  2.300      2.96180e+02       6.61985e+00       1.57338e+00       9.05071e-04       7.69343e+02
  2.400      2.95274e+02       6.76547e+00       1.48161e+00       8.97408e-04       7.60497e+02
  2.500      2.94372e+02       6.90692e+00       1.40461e+00       8.89786e-04       7.51734e+02
  2.600      2.93473e+02       7.05523e+00       1.35069e+00       8.82205e-04       7.43053e+02
  2.700      2.92568e+02       7.23238e+00       1.31641e+00       8.74695e-04       7.34454e+02
  2.800      2.91640e+02       7.46517e+00       1.29308e+00       8.67300e-04       7.25936e+02
  2.900      2.90679e+02       7.77026e+00       1.27105e+00       8.60054e-04       7.17498e+02
  3.000      2.89690e+02       8.10735e+00       1.23550e+00       8.52928e-04       7.09134e+02
  3.100      2.88688e+02       8.41637e+00       1.16980e+00       8.45880e-04       7.00840e+02
  3.200      2.87684e+02       8.64843e+00       1.06291e+00       8.38866e-04       6.92613e+02
  3.300      2.86685e+02       8.81545e+00       9.34288e-01       8.31871e-04       6.84453e+02
  3.400      2.85696e+02       8.94993e+00       8.13675e-01       8.24883e-04       6.76361e+02
  3.500      2.84721e+02       9.07994e+00       7.27370e-01       8.17893e-04       6.68340e+02
  3.600      2.83763e+02       9.20375e+00       6.78460e-01       8.10891e-04       6.60389e+02
  3.700      2.82825e+02       9.30741e+00       6.60496e-01       8.03870e-04       6.52507e+02
  3.800      2.81910e+02       9.37794e+00       6.67078e-01       7.96821e-04       6.44693e+02
  3.900      2.81013e+02       9.41358e+00       6.92659e-01       7.89761e-04       6.36947e+02
  4.000      2.80124e+02       9.41954e+00       7.32219e-01       7.82718e-04       6.29269e+02
  4.100      2.79233e+02       9.40112e+00       7.80900e-01       7.75720e-04       6.21660e+02
  4.200      2.78334e+02       9.36319e+00       8.38505e-01       7.68783e-04       6.14118e+02
  4.300      2.77426e+02       9.31013e+00       9.10296e-01       7.61914e-04       6.06645e+02
  4.400      2.76507e+02       9.24628e+00       1.00184e+00       7.55114e-04       5.99240e+02
  4.500      2.75577e+02       9.17831e+00       1.11858e+00       7.48384e-04       5.91902e+02
  4.600      2.74640e+02       9.11974e+00       1.26558e+00       7.41715e-04       5.84631e+02
  4.700      2.73697e+02       9.08534e+00       1.44784e+00       7.35094e-04       5.77424e+02
  4.800      2.72754e+02       9.08847e+00       1.67077e+00       7.28509e-04       5.70279e+02
  4.900      2.71820e+02       9.12591e+00       1.94472e+00       7.21933e-04       5.63197e+02
  5.000      2.70912e+02       9.18357e+00       2.28327e+00       7.15327e-04       5.56178e+02
  5.100      2.70043e+02       9.24720e+00       2.70004e+00       7.08655e-04       5.49224e+02
  5.200      2.69225e+02       9.30631e+00       3.20262e+00       7.01893e-04       5.42336e+02
  5.300      2.68457e+02       9.36134e+00       3.78134e+00       6.95048e-04       5.35514e+02
  5.400      2.67734e+02       9.41461e+00       4.42339e+00       6.88134e-04       5.28760e+02
  5.500      2.67053e+02       9.46829e+00       5.11591e+00       6.81164e-04       5.22074e+02
  5.600      2.66408e+02       9.51889e+00       5.84289e+00       6.74160e-04       5.15457e+02
  5.700      2.65787e+02       9.55623e+00       6.58471e+00       6.67150e-04       5.08907e+02
  5.800      2.65178e+02       9.56980e+00       7.32152e+00       6.60163e-04       5.02425e+02
  5.900      2.64571e+02       9.55000e+00       8.03442e+00       6.53226e-04       4.96008e+02
  6.000      2.63959e+02       9.50019e+00       8.71745e+00       6.46356e-04       4.89656e+02
  6.100      2.63338e+02       9.43309e+00       9.37402e+00       6.39563e-04       4.83370e+02
  6.200      2.62704e+02       9.36164e+00       1.00078e+01       6.32857e-04       4.77149e+02
  6.300      2.62053e+02       9.29819e+00       1.06218e+01       6.26245e-04       4.70994e+02
  6.400      2.61385e+02       9.24788e+00       1.12132e+01       6.19726e-04       4.64903e+02
  6.500      2.60703e+02       9.21108e+00       1.17747e+01       6.13294e-04       4.58877e+02
  6.600      2.60008e+02       9.18803e+00       1.22992e+01       6.06940e-04       4.52912e+02
  6.700      2.59303e+02       9.17900e+00       1.27796e+01       6.00658e-04       4.47009e+02
  6.800      2.58589e+02       9.18448e+00       1.32092e+01       5.94443e-04       4.41167e+02
  6.900      2.57868e+02       9.20518e+00       1.35822e+01       5.88293e-04       4.35384e+02
  7.000      2.57139e+02       9.24184e+00       1.38926e+01       5.82206e-04       4.29661e+02
  7.100      2.56403e+02       9.29516e+00       1.41345e+01       5.76181e-04       4.23998e+02
  7.200      2.55661e+02       9.36515e+00       1.43030e+01       5.70215e-04       4.18393e+02
  7.300      2.54913e+02       9.45005e+00       1.43963e+01       5.64306e-04       4.12847e+02
  7.400      2.54161e+02       9.54787e+00       1.44125e+01       5.58453e-04       4.07359e+02
  7.500      2.53405e+02       9.65659e+00       1.43501e+01       5.52652e-04       4.01928e+02
  7.600      2.52645e+02       9.77520e+00       1.42082e+01       5.46903e-04       3.96555e+02
  7.700      2.51882e+02       9.91506e+00       1.39956e+01       5.41206e-04       3.91239e+02
  7.800      2.51114e+02       1.00961e+01       1.37278e+01       5.35563e-04       3.85978e+02
  7.900      2.50338e+02       1.03383e+01       1.34206e+01       5.29976e-04       3.80772e+02
  8.000      2.49553e+02       1.06618e+01       1.30896e+01       5.24450e-04       3.75619e+02
  8.100      2.48758e+02       1.10821e+01       1.27516e+01       5.18983e-04       3.70520e+02
  8.200      2.47954e+02       1.15888e+01       1.24292e+01       5.13574e-04       3.65473e+02
  8.300      2.47143e+02       1.21618e+01       1.21474e+01       5.08217e-04       3.60479e+02
  8.400      2.46328e+02       1.27814e+01       1.19311e+01       5.02908e-04       3.55537e+02
  8.500      2.45511e+02       1.34277e+01       1.18052e+01       4.97642e-04       3.50646e+02
  8.600      2.44694e+02       1.40831e+01       1.17885e+01       4.92414e-04       3.45808e+02
  8.700      2.43881e+02       1.47439e+01       1.18633e+01       4.87216e-04       3.41022e+02
  8.800      2.43076e+02       1.54115e+01       1.19983e+01       4.82042e-04       3.36286e+02
  8.900      2.42283e+02       1.60872e+01       1.21624e+01       4.76883e-04       3.31602e+02
  9.000      2.41506e+02       1.67726e+01       1.23242e+01       4.71731e-04       3.26968e+02
  9.100      2.40749e+02       1.74687e+01       1.24540e+01       4.66582e-04       3.22385e+02
  9.200      2.40010e+02       1.81751e+01       1.25461e+01       4.61437e-04       3.17851e+02
  9.300      2.39285e+02       1.88893e+01       1.26146e+01       4.56308e-04       3.13368e+02
  9.400      2.38567e+02       1.96090e+01       1.26746e+01       4.51205e-04       3.08934e+02
  9.500      2.37851e+02       2.03319e+01       1.27408e+01       4.46140e-04       3.04550e+02
  9.600      2.37133e+02       2.10556e+01       1.28280e+01       4.41122e-04       3.00214e+02
  9.700      2.36407e+02       2.17781e+01       1.29487e+01       4.36158e-04       2.95928e+02
  9.800      2.35679e+02       2.24993e+01       1.31033e+01       4.31241e-04       2.91690e+02
  9.900      2.34953e+02       2.32195e+01       1.32891e+01       4.26360e-04       2.87501e+02
 10.000      2.34237e+02       2.39392e+01       1.35033e+01       4.21504e-04       2.83360e+02
 10.100      2.33535e+02       2.46587e+01       1.37429e+01       4.16664e-04       2.79267e+02
 10.200      2.32854e+02       2.53784e+01       1.40052e+01       4.11829e-04       2.75222e+02
 10.300      2.32199e+02       2.60990e+01       1.42862e+01       4.06992e-04       2.71224e+02
 10.400      2.31568e+02       2.68222e+01       1.45761e+01       4.02156e-04       2.67273e+02
 10.500      2.30959e+02       2.75502e+01       1.48635e+01       3.97327e-04       2.63369e+02
 10.600      2.30370e+02       2.82851e+01       1.51371e+01       3.92509e-04       2.59513e+02
 10.700      2.29799e+02       2.90292e+01       1.53855e+01       3.87709e-04       2.55703e+02
 10.800      2.29242e+02       2.97845e+01       1.55973e+01       3.82930e-04       2.51939e+02
 10.900      2.28697e+02       3.05528e+01       1.57614e+01       3.78179e-04       2.48222e+02
 11.000      2.28164e+02       3.13261e+01       1.58768e+01       3.73458e-04       2.44551e+02
 11.100      2.27641e+02       3.20860e+01       1.59527e+01       3.68766e-04       2.40926e+02
 11.200      2.27131e+02       3.28136e+01       1.59988e+01       3.64105e-04       2.37347e+02
 11.300      2.26633e+02       3.34899e+01       1.60248e+01       3.59473e-04       2.33814e+02
 11.400      2.26147e+02       3.40961e+01       1.60406e+01       3.54872e-04       2.30326e+02
 11.500      2.25674e+02       3.46133e+01       1.60558e+01       3.50301e-04       2.26884e+02
 11.600      2.25214e+02       3.50232e+01       1.60799e+01       3.45760e-04       2.23487e+02
 11.700      2.24764e+02       3.53220e+01       1.61162e+01       3.41255e-04       2.20134e+02
 11.800      2.24318e+02       3.55234e+01       1.61603e+01       3.36795e-04       2.16826e+02
 11.900      2.23868e+02       3.56418e+01       1.62076e+01       3.32388e-04       2.13560e+02
 12.000      2.23410e+02       3.56915e+01       1.62535e+01       3.28044e-04       2.10337e+02
 12.100      2.22935e+02       3.56871e+01       1.62934e+01       3.23771e-04       2.07156e+02
 12.200      2.22437e+02       3.56429e+01       1.63225e+01       3.19577e-04       2.04016e+02
 12.300      2.21909e+02       3.55734e+01       1.63364e+01       3.15470e-04       2.00916e+02
 12.400      2.21346e+02       3.54924e+01       1.63308e+01       3.11455e-04       1.97856e+02
 12.500      2.20749e+02       3.54084e+01       1.63058e+01       3.07529e-04       1.94835e+02
 12.600      2.20126e+02       3.53261e+01       1.62640e+01       3.03679e-04       1.91852e+02
 12.700      2.19482e+02       3.52507e+01       1.62083e+01       2.99895e-04       1.88907e+02
 12.800      2.18823e+02       3.51871e+01       1.61413e+01       2.96166e-04       1.85999e+02
 12.900      2.18158e+02       3.51402e+01       1.60657e+01       2.92483e-04       1.83128e+02
 13.000      2.17492e+02       3.51150e+01       1.59843e+01       2.88836e-04       1.80292e+02
 13.100      2.16831e+02       3.51165e+01       1.58997e+01       2.85214e-04       1.77490e+02
 13.200      2.16183e+02       3.51496e+01       1.58147e+01       2.81611e-04       1.74724e+02
 13.300      2.15552e+02       3.52155e+01       1.57302e+01       2.78018e-04       1.71991e+02
 13.400      2.14940e+02       3.53047e+01       1.56423e+01       2.74435e-04       1.69293e+02
 13.500      2.14348e+02       3.54053e+01       1.55459e+01       2.70865e-04       1.66630e+02
 13.600      2.13775e+02       3.55056e+01       1.54359e+01       2.67307e-04       1.64002e+02
 13.700      2.13222e+02       3.55938e+01       1.53075e+01       2.63763e-04       1.61409e+02
 13.800      2.12689e+02       3.56582e+01       1.51556e+01       2.60234e-04       1.58852e+02
 13.900      2.12178e+02       3.56871e+01       1.49752e+01       2.56721e-04       1.56330e+02
 14.000      2.11688e+02       3.56687e+01       1.47613e+01       2.53223e-04       1.53845e+02
 14.100      2.11220e+02       3.55913e+01       1.45089e+01       2.49744e-04       1.51395e+02
 14.200      2.10774e+02       3.54433e+01       1.42132e+01       2.46282e-04       1.48982e+02
 14.300      2.10351e+02       3.52195e+01       1.38735e+01       2.42839e-04       1.46604e+02
 14.400      2.09950e+02       3.49227e+01       1.34943e+01       2.39414e-04       1.44261e+02
 14.500      2.09570e+02       3.45560e+01       1.30804e+01       2.36007e-04       1.41950e+02
 14.600      2.09212e+02       3.41226e+01       1.26367e+01       2.32617e-04       1.39672e+02
 14.700      2.08874e+02       3.36255e+01       1.21681e+01       2.29244e-04       1.37425e+02
 14.800      2.08556e+02       3.30681e+01       1.16793e+01       2.25889e-04       1.35207e+02
 14.900      2.08257e+02       3.24533e+01       1.11752e+01       2.22551e-04       1.33018e+02
 15.000      2.07978e+02       3.17844e+01       1.06606e+01       2.19229e-04       1.30857e+02
 15.100      2.07718e+02       3.10646e+01       1.01404e+01       2.15924e-04       1.28723e+02
 15.200      2.07475e+02       3.02969e+01       9.61946e+00       2.12636e-04       1.26615e+02
 15.300      2.07251e+02       2.94845e+01       9.10251e+00       2.09364e-04       1.24532e+02
 15.400      2.07043e+02       2.86316e+01       8.59343e+00       2.06110e-04       1.22474e+02
 15.500      2.06853e+02       2.77440e+01       8.09396e+00       2.02877e-04       1.20442e+02
 15.600      2.06681e+02       2.68279e+01       7.60559e+00       1.99669e-04       1.18439e+02
 15.700      2.06526e+02       2.58896e+01       7.12984e+00       1.96489e-04       1.16465e+02
 15.800      2.06388e+02       2.49351e+01       6.66817e+00       1.93340e-04       1.14522e+02
 15.900      2.06268e+02       2.39706e+01       6.22209e+00       1.90224e-04       1.12610e+02
 16.000      2.06165e+02       2.30025e+01       5.79309e+00       1.87144e-04       1.10732e+02
 16.100      2.06080e+02       2.20367e+01       5.38266e+00       1.84103e-04       1.08888e+02
 16.200      2.06012e+02       2.10795e+01       4.99230e+00       1.81103e-04       1.07078e+02
 16.300      2.05962e+02       2.01371e+01       4.62350e+00       1.78146e-04       1.05304e+02
 16.400      2.05929e+02       1.92157e+01       4.27775e+00       1.75235e-04       1.03567e+02
 16.500      2.05914e+02       1.83213e+01       3.95655e+00       1.72370e-04       1.01866e+02
 16.600      2.05916e+02       1.74603e+01       3.66138e+00       1.69554e-04       1.00203e+02
 16.700      2.05936e+02       1.66380e+01       3.39346e+00       1.66788e-04       9.85780e+01
 16.800      2.05973e+02       1.58549e+01       3.15238e+00       1.64071e-04       9.69893e+01
 16.900      2.06027e+02       1.51098e+01       2.93713e+00       1.61400e-04       9.54352e+01
 17.000      2.06096e+02       1.44017e+01       2.74671e+00       1.58774e-04       9.39142e+01
 17.100      2.06181e+02       1.37292e+01       2.58011e+00       1.56191e-04       9.24247e+01
 17.200      2.06282e+02       1.30913e+01       2.43634e+00       1.53650e-04       9.09650e+01
 17.300      2.06396e+02       1.24868e+01       2.31437e+00       1.51148e-04       8.95338e+01
 17.400      2.06525e+02       1.19145e+01       2.21322e+00       1.48685e-04       8.81295e+01
 17.500      2.06667e+02       1.13732e+01       2.13188e+00       1.46259e-04       8.67509e+01
 17.600      2.06822e+02       1.08618e+01       2.06934e+00       1.43868e-04       8.53967e+01
 17.700      2.06989e+02       1.03791e+01       2.02459e+00       1.41511e-04       8.40657e+01
 17.800      2.07167e+02       9.92400e+00       1.99665e+00       1.39187e-04       8.27568e+01
 17.900      2.07358e+02       9.49521e+00       1.98449e+00       1.36895e-04       8.14687e+01
 18.000      2.07558e+02       9.09161e+00       1.98712e+00       1.34634e-04       8.02005e+01
 18.100      2.07770e+02       8.71204e+00       2.00353e+00       1.32402e-04       7.89512e+01
 18.200      2.07990e+02       8.35533e+00       2.03272e+00       1.30199e-04       7.77197e+01
 18.300      2.08220e+02       8.02030e+00       2.07368e+00       1.28023e-04       7.65053e+01
 18.400      2.08458e+02       7.70579e+00       2.12542e+00       1.25873e-04       7.53069e+01
 18.500      2.08705e+02       7.41062e+00       2.18692e+00       1.23750e-04       7.41239e+01
 18.600      2.08959e+02       7.13363e+00       2.25718e+00       1.21651e-04       7.29553e+01
 18.700      2.09220e+02       6.87364e+00       2.33520e+00       1.19576e-04       7.18006e+01
 18.800      2.09487e+02       6.62951e+00       2.41997e+00       1.17524e-04       7.06589e+01
 18.900      2.09761e+02       6.40003e+00       2.51050e+00       1.15495e-04       6.95297e+01
 19.000      2.10039e+02       6.18420e+00       2.60580e+00       1.13489e-04       6.84128e+01
 19.100      2.10322e+02       5.98113e+00       2.70495e+00       1.11508e-04       6.73087e+01
 19.200      2.10608e+02       5.78995e+00       2.80702e+00       1.09552e-04       6.62179e+01
 19.300      2.10897e+02       5.60982e+00       2.91107e+00       1.07622e-04       6.51410e+01
 19.400      2.11187e+02       5.43985e+00       3.01619e+00       1.05721e-04       6.40783e+01
 19.500      2.11477e+02       5.27918e+00       3.12144e+00       1.03849e-04       6.30302e+01
 19.600      2.11767e+02       5.12696e+00       3.22589e+00       1.02007e-04       6.19972e+01
 19.700      2.12056e+02       4.98232e+00       3.32861e+00       1.00196e-04       6.09795e+01
 19.800      2.12343e+02       4.84439e+00       3.42867e+00       9.84164e-05       5.99773e+01
 19.900      2.12626e+02       4.71231e+00       3.52515e+00       9.66692e-05       5.89911e+01
 20.000      2.12905e+02       4.58522e+00       3.61711e+00       9.49547e-05       5.80210e+01
 20.100      2.13180e+02       4.46224e+00       3.70363e+00       9.32737e-05       5.70673e+01
 20.200      2.13448e+02       4.34253e+00       3.78377e+00       9.16266e-05       5.61300e+01
 20.300      2.13709e+02       4.22520e+00       3.85661e+00       9.00138e-05       5.52095e+01
