# Data Source: NASA GEOS5 Near-Real-Time
# Model Time = 2010-06-27 18:00:00
# Location = [  39.7393, -104.9900 ]
# Fields = [ Z(km), T(K), U(m/s), V(m/s), R(g/cm3), P(mbar) ]
# Ground Height = 1.589
  0.000      3.07966e+02      -1.18127e+00      -4.09034e-01       1.14570e-03       1.01264e+03
  0.100      3.07323e+02      -1.17180e+00      -3.91990e-01       1.13469e-03       1.00081e+03
  0.200      3.06681e+02      -1.16135e+00      -3.73591e-01       1.12378e-03       9.89122e+02
  0.300      3.06033e+02      -1.16407e+00      -3.73385e-01       1.11301e-03       9.77576e+02
  0.400      3.05374e+02      -1.19087e+00      -4.05660e-01       1.10242e-03       9.66183e+02
  0.500      3.04716e+02      -1.22692e+00      -4.42590e-01       1.09194e-03       9.54939e+02
  0.600      3.04075e+02      -1.24609e+00      -4.39200e-01       1.08151e-03       9.43832e+02
  0.700      3.03446e+02      -1.24164e+00      -4.05450e-01       1.07116e-03       9.32860e+02
  0.800      3.02800e+02      -1.22362e+00      -3.98371e-01       1.06097e-03       9.22026e+02
  0.900      3.02130e+02      -1.19882e+00      -4.38222e-01       1.05099e-03       9.11330e+02
  1.000      3.01460e+02      -1.16720e+00      -4.75902e-01       1.04113e-03       9.00771e+02
  1.100      3.00815e+02      -1.12842e+00      -4.66982e-01       1.03128e-03       8.90345e+02
  1.200      3.00193e+02      -1.08430e+00      -4.26790e-01       1.02147e-03       8.80049e+02
  1.300      2.99585e+02      -1.03746e+00      -3.88364e-01       1.01171e-03       8.69881e+02
  1.400      2.98969e+02      -9.94197e-01      -3.64633e-01       1.00210e-03       8.59840e+02
  1.500      2.98310e+02      -9.64390e-01      -3.48667e-01       9.92731e-04       8.49926e+02
  1.600      2.97581e+02      -9.54916e-01      -3.32144e-01       9.83706e-04       8.40140e+02
  1.700      2.96776e+02      -9.60282e-01      -3.04590e-01       9.75015e-04       8.30467e+02
  1.800      2.95900e+02      -9.72138e-01      -2.55152e-01       9.66626e-04       8.20891e+02
  1.900      2.94972e+02      -9.87675e-01      -1.77868e-01       9.58462e-04       8.11406e+02
  2.000      2.94032e+02      -1.01073e+00      -7.26435e-02       9.50394e-04       8.02011e+02
  2.100      2.93117e+02      -1.04401e+00       5.89196e-02       9.42305e-04       7.92710e+02
  2.200      2.92231e+02      -1.07832e+00       2.04744e-01       9.34179e-04       7.83500e+02
  2.300      2.91364e+02      -1.09891e+00       3.47850e-01       9.26050e-04       7.74376e+02
  2.400      2.90507e+02      -1.09009e+00       4.75575e-01       9.17938e-04       7.65337e+02
  2.500      2.89667e+02      -1.03327e+00       5.89414e-01       9.09833e-04       7.56385e+02
  2.600      2.88850e+02      -9.09354e-01       6.93699e-01       9.01715e-04       7.47522e+02
  2.700      2.88057e+02      -7.08356e-01       7.89317e-01       8.93587e-04       7.38749e+02
  2.800      2.87272e+02      -4.36522e-01       8.70990e-01       8.85491e-04       7.30062e+02
  2.900      2.86482e+02      -1.01686e-01       9.32804e-01       8.77470e-04       7.21458e+02
  3.000      2.85674e+02       2.91890e-01       9.68956e-01       8.69553e-04       7.12933e+02
  3.100      2.84846e+02       7.44435e-01       9.73775e-01       8.61747e-04       7.04486e+02
  3.200      2.83995e+02       1.25624e+00       9.41370e-01       8.54061e-04       6.96116e+02
  3.300      2.83132e+02       1.82137e+00       8.59676e-01       8.46459e-04       6.87823e+02
  3.400      2.82281e+02       2.42715e+00       7.09858e-01       8.38866e-04       6.79604e+02
  3.500      2.81468e+02       3.06056e+00       4.73215e-01       8.31204e-04       6.71458e+02
  3.600      2.80699e+02       3.71026e+00       1.46188e-01       8.23462e-04       6.63386e+02
  3.700      2.79955e+02       4.36688e+00      -2.56884e-01       8.15695e-04       6.55387e+02
  3.800      2.79217e+02       5.02109e+00      -7.20601e-01       8.07964e-04       6.47463e+02
  3.900      2.78473e+02       5.65940e+00      -1.22802e+00       8.00302e-04       6.39615e+02
  4.000      2.77724e+02       6.26166e+00      -1.75973e+00       7.92709e-04       6.31843e+02
  4.100      2.76972e+02       6.80714e+00      -2.29610e+00       7.85179e-04       6.24146e+02
  4.200      2.76217e+02       7.28146e+00      -2.81789e+00       7.77709e-04       6.16523e+02
  4.300      2.75456e+02       7.68851e+00      -3.30702e+00       7.70307e-04       6.08973e+02
  4.400      2.74685e+02       8.03546e+00      -3.74564e+00       7.62981e-04       6.01494e+02
  4.500      2.73902e+02       8.32773e+00      -4.11775e+00       7.55736e-04       5.94083e+02
  4.600      2.73111e+02       8.55785e+00      -4.42130e+00       7.48558e-04       5.86740e+02
  4.700      2.72320e+02       8.71255e+00      -4.66049e+00       7.41428e-04       5.79469e+02
  4.800      2.71537e+02       8.77873e+00      -4.83945e+00       7.34324e-04       5.72268e+02
  4.900      2.70769e+02       8.75063e+00      -4.95695e+00       7.27232e-04       5.65138e+02
  5.000      2.70018e+02       8.63254e+00      -5.00451e+00       7.20143e-04       5.58077e+02
  5.100      2.69287e+02       8.42950e+00      -4.97311e+00       7.13050e-04       5.51083e+02
  5.200      2.68578e+02       8.14807e+00      -4.85646e+00       7.05946e-04       5.44155e+02
  5.300      2.67890e+02       7.80457e+00      -4.66567e+00       6.98833e-04       5.37294e+02
  5.400      2.67225e+02       7.41926e+00      -4.41874e+00       6.91716e-04       5.30501e+02
  5.500      2.66581e+02       7.01233e+00      -4.13371e+00       6.84599e-04       5.23778e+02
  5.600      2.65956e+02       6.60045e+00      -3.83120e+00       6.77494e-04       5.17126e+02
  5.700      2.65338e+02       6.19191e+00      -3.53787e+00       6.70427e-04       5.10544e+02
  5.800      2.64717e+02       5.79383e+00      -3.28125e+00       6.63426e-04       5.04029e+02
  5.900      2.64079e+02       5.41334e+00      -3.08856e+00       6.56517e-04       4.97580e+02
  6.000      2.63420e+02       5.05863e+00      -2.97341e+00       6.49715e-04       4.91195e+02
  6.100      2.62741e+02       4.73939e+00      -2.93056e+00       6.43014e-04       4.84875e+02
  6.200      2.62043e+02       4.46538e+00      -2.95337e+00       6.36409e-04       4.78620e+02
  6.300      2.61328e+02       4.24611e+00      -3.03506e+00       6.29895e-04       4.72429e+02
  6.400      2.60597e+02       4.08070e+00      -3.16232e+00       6.23470e-04       4.66302e+02
  6.500      2.59849e+02       3.95544e+00      -3.31377e+00       6.17134e-04       4.60238e+02
  6.600      2.59083e+02       3.85579e+00      -3.46754e+00       6.10888e-04       4.54237e+02
  6.700      2.58298e+02       3.76730e+00      -3.60184e+00       6.04733e-04       4.48298e+02
  6.800      2.57494e+02       3.68355e+00      -3.70339e+00       5.98666e-04       4.42419e+02
  6.900      2.56678e+02       3.61218e+00      -3.77378e+00       5.92671e-04       4.36600e+02
  7.000      2.55853e+02       3.56224e+00      -3.81611e+00       5.86736e-04       4.30839e+02
  7.100      2.55025e+02       3.54277e+00      -3.83350e+00       5.80845e-04       4.25134e+02
  7.200      2.54199e+02       3.55952e+00      -3.82973e+00       5.74990e-04       4.19485e+02
  7.300      2.53374e+02       3.60397e+00      -3.81159e+00       5.69170e-04       4.13891e+02
  7.400      2.52548e+02       3.66379e+00      -3.78667e+00       5.63392e-04       4.08354e+02
  7.500      2.51720e+02       3.72662e+00      -3.76255e+00       5.57660e-04       4.02874e+02
  7.600      2.50888e+02       3.78070e+00      -3.74638e+00       5.51978e-04       3.97451e+02
  7.700      2.50049e+02       3.82910e+00      -3.73319e+00       5.46353e-04       3.92085e+02
  7.800      2.49200e+02       3.89086e+00      -3.70504e+00       5.40789e-04       3.86774e+02
  7.900      2.48337e+02       3.98584e+00      -3.64334e+00       5.35293e-04       3.81518e+02
  8.000      2.47456e+02       4.13389e+00      -3.52947e+00       5.29870e-04       3.76313e+02
  8.100      2.46556e+02       4.35167e+00      -3.34756e+00       5.24522e-04       3.71160e+02
  8.200      2.45645e+02       4.62768e+00      -3.10578e+00       5.19230e-04       3.66057e+02
  8.300      2.44739e+02       4.93581e+00      -2.82477e+00       5.13962e-04       3.61007e+02
  8.400      2.43853e+02       5.24981e+00      -2.52530e+00       5.08687e-04       3.56009e+02
  8.500      2.43003e+02       5.54341e+00      -2.22814e+00       5.03376e-04       3.51064e+02
  8.600      2.42201e+02       5.79363e+00      -1.95140e+00       4.98005e-04       3.46172e+02
  8.700      2.41445e+02       6.00283e+00      -1.69265e+00       4.92584e-04       3.41334e+02
  8.800      2.40720e+02       6.18530e+00      -1.43977e+00       4.87140e-04       3.36549e+02
  8.900      2.40016e+02       6.35537e+00      -1.18061e+00       4.81700e-04       3.31817e+02
  9.000      2.39319e+02       6.52740e+00      -9.02989e-01       4.76290e-04       3.27137e+02
  9.100      2.38617e+02       6.71541e+00      -5.95195e-01       4.70932e-04       3.22509e+02
  9.200      2.37908e+02       6.92692e+00      -2.53922e-01       4.65634e-04       3.17933e+02
  9.300      2.37196e+02       7.16362e+00       1.16552e-01       4.60385e-04       3.13408e+02
  9.400      2.36487e+02       7.42698e+00       5.11662e-01       4.55176e-04       3.08935e+02
  9.500      2.35784e+02       7.71849e+00       9.26861e-01       4.49996e-04       3.04513e+02
  9.600      2.35095e+02       8.03963e+00       1.35759e+00       4.44837e-04       3.00142e+02
  9.700      2.34422e+02       8.39214e+00       1.80111e+00       4.39693e-04       2.95822e+02
  9.800      2.33765e+02       8.77895e+00       2.26276e+00       4.34565e-04       2.91552e+02
  9.900      2.33121e+02       9.20332e+00       2.75010e+00       4.29458e-04       2.87332e+02
 10.000      2.32488e+02       9.66851e+00       3.27067e+00       4.24376e-04       2.83162e+02
 10.100      2.31865e+02       1.01778e+01       3.83203e+00       4.19326e-04       2.79041e+02
 10.200      2.31248e+02       1.07344e+01       4.44174e+00       4.14310e-04       2.74970e+02
 10.300      2.30635e+02       1.13365e+01       5.10113e+00       4.09333e-04       2.70947e+02
 10.400      2.30026e+02       1.19622e+01       5.78723e+00       4.04397e-04       2.66973e+02
 10.500      2.29418e+02       1.25847e+01       6.47115e+00       3.99505e-04       2.63046e+02
 10.600      2.28811e+02       1.31772e+01       7.12397e+00       3.94660e-04       2.59168e+02
 10.700      2.28203e+02       1.37131e+01       7.71678e+00       3.89862e-04       2.55337e+02
 10.800      2.27592e+02       1.41655e+01       8.22069e+00       3.85114e-04       2.51552e+02
 10.900      2.26978e+02       1.45091e+01       8.60849e+00       3.80418e-04       2.47814e+02
 11.000      2.26361e+02       1.47415e+01       8.87985e+00       3.75772e-04       2.44122e+02
 11.100      2.25744e+02       1.48789e+01       9.05594e+00       3.71171e-04       2.40476e+02
 11.200      2.25129e+02       1.49376e+01       9.15851e+00       3.66610e-04       2.36874e+02
 11.300      2.24520e+02       1.49344e+01       9.20929e+00       3.62085e-04       2.33317e+02
 11.400      2.23919e+02       1.48857e+01       9.23004e+00       3.57590e-04       2.29804e+02
 11.500      2.23328e+02       1.48081e+01       9.24251e+00       3.53122e-04       2.26334e+02
 11.600      2.22750e+02       1.47176e+01       9.26779e+00       3.48677e-04       2.22907e+02
 11.700      2.22187e+02       1.46244e+01       9.31779e+00       3.44253e-04       2.19522e+02
 11.800      2.21640e+02       1.45340e+01       9.39753e+00       3.39850e-04       2.16181e+02
 11.900      2.21111e+02       1.44521e+01       9.51186e+00       3.35466e-04       2.12883e+02
 12.000      2.20600e+02       1.43840e+01       9.66566e+00       3.31102e-04       2.09627e+02
 12.100      2.20108e+02       1.43352e+01       9.86378e+00       3.26757e-04       2.06416e+02
 12.200      2.19638e+02       1.43113e+01       1.01111e+01       3.22431e-04       2.03248e+02
 12.300      2.19189e+02       1.43178e+01       1.04124e+01       3.18124e-04       2.00123e+02
 12.400      2.18764e+02       1.43577e+01       1.07685e+01       3.13835e-04       1.97042e+02
 12.500      2.18358e+02       1.44238e+01       1.11610e+01       3.09570e-04       1.94004e+02
 12.600      2.17970e+02       1.45056e+01       1.15663e+01       3.05331e-04       1.91007e+02
 12.700      2.17596e+02       1.45928e+01       1.19608e+01       3.01123e-04       1.88052e+02
 12.800      2.17234e+02       1.46751e+01       1.23209e+01       2.96949e-04       1.85136e+02
 12.900      2.16879e+02       1.47420e+01       1.26230e+01       2.92814e-04       1.82260e+02
 13.000      2.16530e+02       1.47833e+01       1.28434e+01       2.88720e-04       1.79423e+02
 13.100      2.16183e+02       1.47885e+01       1.29586e+01       2.84672e-04       1.76624e+02
 13.200      2.15836e+02       1.47475e+01       1.29455e+01       2.80672e-04       1.73862e+02
 13.300      2.15488e+02       1.46579e+01       1.27997e+01       2.76719e-04       1.71137e+02
 13.400      2.15144e+02       1.45270e+01       1.25408e+01       2.72809e-04       1.68449e+02
 13.500      2.14808e+02       1.43625e+01       1.21895e+01       2.68938e-04       1.65800e+02
 13.600      2.14486e+02       1.41724e+01       1.17666e+01       2.65100e-04       1.63189e+02
 13.700      2.14182e+02       1.39644e+01       1.12932e+01       2.61293e-04       1.60618e+02
 13.800      2.13901e+02       1.37466e+01       1.07899e+01       2.57512e-04       1.58085e+02
 13.900      2.13647e+02       1.35266e+01       1.02777e+01       2.53752e-04       1.55593e+02
 14.000      2.13425e+02       1.33124e+01       9.77740e+00       2.50012e-04       1.53140e+02
 14.100      2.13240e+02       1.31119e+01       9.30989e+00       2.46286e-04       1.50727e+02
 14.200      2.13096e+02       1.29321e+01       8.89446e+00       2.42573e-04       1.48354e+02
 14.300      2.12990e+02       1.27736e+01       8.53404e+00       2.38876e-04       1.46021e+02
 14.400      2.12916e+02       1.26324e+01       8.22179e+00       2.35202e-04       1.43724e+02
 14.500      2.12865e+02       1.25048e+01       7.95073e+00       2.31556e-04       1.41463e+02
 14.600      2.12833e+02       1.23869e+01       7.71391e+00       2.27944e-04       1.39235e+02
 14.700      2.12812e+02       1.22750e+01       7.50435e+00       2.24372e-04       1.37040e+02
 14.800      2.12795e+02       1.21651e+01       7.31508e+00       2.20844e-04       1.34874e+02
 14.900      2.12775e+02       1.20535e+01       7.13913e+00       2.17366e-04       1.32738e+02
 15.000      2.12745e+02       1.19363e+01       6.96953e+00       2.13942e-04       1.30629e+02
 15.100      2.12700e+02       1.18098e+01       6.79931e+00       2.10576e-04       1.28546e+02
 15.200      2.12631e+02       1.16700e+01       6.62150e+00       2.07272e-04       1.26488e+02
 15.300      2.12532e+02       1.15132e+01       6.42915e+00       2.04033e-04       1.24454e+02
 15.400      2.12401e+02       1.13373e+01       6.21840e+00       2.00861e-04       1.22443e+02
 15.500      2.12240e+02       1.11433e+01       5.99095e+00       1.97753e-04       1.20457e+02
 15.600      2.12056e+02       1.09327e+01       5.74917e+00       1.94706e-04       1.18498e+02
 15.700      2.11851e+02       1.07068e+01       5.49538e+00       1.91717e-04       1.16566e+02
 15.800      2.11631e+02       1.04671e+01       5.23193e+00       1.88783e-04       1.14663e+02
 15.900      2.11400e+02       1.02149e+01       4.96115e+00       1.85902e-04       1.12790e+02
 16.000      2.11163e+02       9.95170e+00       4.68539e+00       1.83071e-04       1.10948e+02
 16.100      2.10924e+02       9.67881e+00       4.40697e+00       1.80288e-04       1.09138e+02
 16.200      2.10689e+02       9.39766e+00       4.12825e+00       1.77550e-04       1.07360e+02
 16.300      2.10461e+02       9.10967e+00       3.85156e+00       1.74855e-04       1.05616e+02
 16.400      2.10245e+02       8.81622e+00       3.57924e+00       1.72201e-04       1.03907e+02
 16.500      2.10046e+02       8.51871e+00       3.31363e+00       1.69586e-04       1.02232e+02
 16.600      2.09868e+02       8.21855e+00       3.05706e+00       1.67008e-04       1.00592e+02
 16.700      2.09716e+02       7.91709e+00       2.81178e+00       1.64465e-04       9.89888e+01
 16.800      2.09590e+02       7.61500e+00       2.57861e+00       1.61955e-04       9.74202e+01
 16.900      2.09491e+02       7.31248e+00       2.35743e+00       1.59478e-04       9.58847e+01
 17.000      2.09417e+02       7.00970e+00       2.14805e+00       1.57033e-04       9.43810e+01
 17.100      2.09366e+02       6.70687e+00       1.95033e+00       1.54619e-04       9.29074e+01
 17.200      2.09338e+02       6.40416e+00       1.76410e+00       1.52234e-04       9.14625e+01
 17.300      2.09332e+02       6.10177e+00       1.58920e+00       1.49879e-04       9.00450e+01
 17.400      2.09347e+02       5.79988e+00       1.42545e+00       1.47553e-04       8.86535e+01
 17.500      2.09382e+02       5.49867e+00       1.27271e+00       1.45254e-04       8.72866e+01
 17.600      2.09435e+02       5.19833e+00       1.13080e+00       1.42982e-04       8.59434e+01
 17.700      2.09506e+02       4.89905e+00       9.99559e-01       1.40737e-04       8.46224e+01
 17.800      2.09593e+02       4.60102e+00       8.78833e-01       1.38517e-04       8.33228e+01
 17.900      2.09697e+02       4.30442e+00       7.68449e-01       1.36323e-04       8.20433e+01
 18.000      2.09815e+02       4.00944e+00       6.68249e-01       1.34154e-04       8.07830e+01
 18.100      2.09946e+02       3.71626e+00       5.78068e-01       1.32008e-04       7.95410e+01
 18.200      2.10090e+02       3.42508e+00       4.97744e-01       1.29887e-04       7.83163e+01
 18.300      2.10246e+02       3.13608e+00       4.27114e-01       1.27788e-04       7.71081e+01
 18.400      2.10412e+02       2.84944e+00       3.66012e-01       1.25712e-04       7.59156e+01
 18.500      2.10588e+02       2.56535e+00       3.14277e-01       1.23659e-04       7.47379e+01
 18.600      2.10773e+02       2.28400e+00       2.71745e-01       1.21627e-04       7.35743e+01
 18.700      2.10964e+02       2.00558e+00       2.38254e-01       1.19617e-04       7.24241e+01
 18.800      2.11163e+02       1.73027e+00       2.13639e-01       1.17628e-04       7.12868e+01
 18.900      2.11366e+02       1.45825e+00       1.97738e-01       1.15660e-04       7.01615e+01
 19.000      2.11574e+02       1.18972e+00       1.90341e-01       1.13712e-04       6.90478e+01
 19.100      2.11786e+02       9.24791e-01       1.90947e-01       1.11785e-04       6.79461e+01
 19.200      2.12001e+02       6.63590e-01       1.98945e-01       1.09882e-04       6.68569e+01
 19.300      2.12219e+02       4.06236e-01       2.13721e-01       1.08002e-04       6.57807e+01
 19.400      2.12439e+02       1.52832e-01       2.34666e-01       1.06147e-04       6.47180e+01
 19.500      2.12661e+02      -9.64998e-02       2.61166e-01       1.04318e-04       6.36692e+01
 19.600      2.12884e+02      -3.41646e-01       2.92609e-01       1.02516e-04       6.26346e+01
 19.700      2.13108e+02      -5.82490e-01       3.28385e-01       1.00741e-04       6.16148e+01
 19.800      2.13331e+02      -8.18912e-01       3.67880e-01       9.89939e-05       6.06100e+01
 19.900      2.13554e+02      -1.05081e+00       4.10483e-01       9.72760e-05       5.96205e+01
 20.000      2.13777e+02      -1.27805e+00       4.55583e-01       9.55875e-05       5.86467e+01
 20.100      2.13997e+02      -1.50054e+00       5.02566e-01       9.39290e-05       5.76886e+01
 20.200      2.14216e+02      -1.71815e+00       5.50822e-01       9.23009e-05       5.67466e+01
 20.300      2.14432e+02      -1.93076e+00       5.99737e-01       9.07037e-05       5.58209e+01
