# Data Source: NASA GEOS5 Near-Real-Time
# Model Time = 2010-09-05 18:00:00
# Location = [  39.7393, -104.9900 ]
# Fields = [ Z(km), T(K), U(m/s), V(m/s), R(g/cm3), P(mbar) ]
# Ground Height = 1.589
  0.000      3.12630e+02       5.09308e+00       9.62891e-01       1.11803e-03       1.00315e+03
  0.100      3.12039e+02       5.04388e+00       9.48802e-01       1.10707e-03       9.91440e+02
  0.200      3.11433e+02       5.00905e+00       9.48604e-01       1.09629e-03       9.79874e+02
  0.300      3.10792e+02       5.00694e+00       9.79108e-01       1.08575e-03       9.68458e+02
  0.400      3.10124e+02       5.03503e+00       1.02139e+00       1.07543e-03       9.57193e+02
  0.500      3.09456e+02       5.07375e+00       1.02782e+00       1.06524e-03       9.46076e+02
  0.600      3.08805e+02       5.11054e+00       9.87199e-01       1.05511e-03       9.35109e+02
  0.700      3.08172e+02       5.14386e+00       9.42897e-01       1.04504e-03       9.24292e+02
  0.800      3.07549e+02       5.17586e+00       9.27901e-01       1.03507e-03       9.13625e+02
  0.900      3.06905e+02       5.21782e+00       9.26769e-01       1.02530e-03       9.03099e+02
  1.000      3.06206e+02       5.27932e+00       9.16094e-01       1.01580e-03       8.92700e+02
  1.100      3.05482e+02       5.33304e+00       8.92563e-01       1.00650e-03       8.82430e+02
  1.200      3.04796e+02       5.33062e+00       8.64581e-01       9.97172e-04       8.72292e+02
  1.300      3.04174e+02       5.27730e+00       8.37654e-01       9.87756e-04       8.62290e+02
  1.400      3.03571e+02       5.27784e+00       8.11665e-01       9.78396e-04       8.52425e+02
  1.500      3.02938e+02       5.43269e+00       7.85650e-01       9.69252e-04       8.42698e+02
  1.600      3.02252e+02       5.71241e+00       7.56565e-01       9.60388e-04       8.33101e+02
  1.700      3.01501e+02       6.02107e+00       7.20309e-01       9.51823e-04       8.23620e+02
  1.800      3.00684e+02       6.28266e+00       6.75533e-01       9.43546e-04       8.14246e+02
  1.900      2.99818e+02       6.47432e+00       6.28069e-01       9.35488e-04       8.04967e+02
  2.000      2.98925e+02       6.58252e+00       5.84748e-01       9.27570e-04       7.95776e+02
  2.100      2.98022e+02       6.61692e+00       5.48296e-01       9.19731e-04       7.86668e+02
  2.200      2.97124e+02       6.61284e+00       5.16882e-01       9.11932e-04       7.77645e+02
  2.300      2.96242e+02       6.60479e+00       4.89120e-01       9.04136e-04       7.68711e+02
  2.400      2.95376e+02       6.60552e+00       4.70517e-01       8.96353e-04       7.59864e+02
  2.500      2.94514e+02       6.61513e+00       4.70592e-01       8.88614e-04       7.51105e+02
  2.600      2.93644e+02       6.63858e+00       4.97152e-01       8.80954e-04       7.42431e+02
  2.700      2.92752e+02       6.71059e+00       5.47646e-01       8.73413e-04       7.33840e+02
  2.800      2.91820e+02       6.87664e+00       6.15758e-01       8.66036e-04       7.25325e+02
  2.900      2.90837e+02       7.16496e+00       6.94922e-01       8.58847e-04       7.16883e+02
  3.000      2.89822e+02       7.52623e+00       7.77495e-01       8.51792e-04       7.08512e+02
  3.100      2.88801e+02       7.88934e+00       8.55531e-01       8.44793e-04       7.00213e+02
  3.200      2.87793e+02       8.19988e+00       9.22959e-01       8.37791e-04       6.91987e+02
  3.300      2.86800e+02       8.47552e+00       9.81819e-01       8.30786e-04       6.83832e+02
  3.400      2.85814e+02       8.75341e+00       1.03634e+00       8.23795e-04       6.75749e+02
  3.500      2.84833e+02       9.06219e+00       1.09063e+00       8.16832e-04       6.67736e+02
  3.600      2.83854e+02       9.38554e+00       1.14805e+00       8.09895e-04       6.59791e+02
  3.700      2.82881e+02       9.69230e+00       1.21175e+00       8.02977e-04       6.51912e+02
  3.800      2.81914e+02       9.95409e+00       1.28418e+00       7.96075e-04       6.44097e+02
  3.900      2.80948e+02       1.01664e+01       1.36198e+00       7.89198e-04       6.36348e+02
  4.000      2.79980e+02       1.03369e+01       1.43884e+00       7.82367e-04       6.28665e+02
  4.100      2.79002e+02       1.04730e+01       1.50837e+00       7.75600e-04       6.21051e+02
  4.200      2.78015e+02       1.05806e+01       1.56373e+00       7.68894e-04       6.13504e+02
  4.300      2.77025e+02       1.06634e+01       1.59756e+00       7.62235e-04       6.06023e+02
  4.400      2.76035e+02       1.07254e+01       1.60253e+00       7.55604e-04       5.98606e+02
  4.500      2.75052e+02       1.07724e+01       1.57665e+00       7.48990e-04       5.91252e+02
  4.600      2.74074e+02       1.08147e+01       1.53030e+00       7.42392e-04       5.83961e+02
  4.700      2.73103e+02       1.08634e+01       1.47560e+00       7.35812e-04       5.76735e+02
  4.800      2.72140e+02       1.09304e+01       1.42345e+00       7.29251e-04       5.69575e+02
  4.900      2.71184e+02       1.10331e+01       1.37446e+00       7.22706e-04       5.62480e+02
  5.000      2.70236e+02       1.11921e+01       1.32411e+00       7.16176e-04       5.55450e+02
  5.100      2.69298e+02       1.14279e+01       1.26778e+00       7.09657e-04       5.48484e+02
  5.200      2.68378e+02       1.17601e+01       1.20002e+00       7.03128e-04       5.41581e+02
  5.300      2.67499e+02       1.22060e+01       1.11349e+00       6.96532e-04       5.34743e+02
  5.400      2.66684e+02       1.27827e+01       1.00061e+00       6.89810e-04       5.27969e+02
  5.500      2.65958e+02       1.35056e+01       8.54492e-01       6.82906e-04       5.21262e+02
  5.600      2.65325e+02       1.43643e+01       6.80134e-01       6.75815e-04       5.14621e+02
  5.700      2.64774e+02       1.53256e+01       4.92757e-01       6.68574e-04       5.08050e+02
  5.800      2.64292e+02       1.63558e+01       3.07908e-01       6.61221e-04       5.01549e+02
  5.900      2.63868e+02       1.74216e+01       1.40127e-01       6.53795e-04       4.95120e+02
  6.000      2.63481e+02       1.84933e+01      -4.58272e-03       6.46351e-04       4.88764e+02
  6.100      2.63107e+02       1.95433e+01      -1.24488e-01       6.38947e-04       4.82480e+02
  6.200      2.62724e+02       2.05437e+01      -2.17889e-01       6.31640e-04       4.76268e+02
  6.300      2.62309e+02       2.14699e+01      -2.83981e-01       6.24482e-04       4.70127e+02
  6.400      2.61856e+02       2.23181e+01      -3.28707e-01       6.17484e-04       4.64056e+02
  6.500      2.61365e+02       2.30945e+01      -3.61081e-01       6.10641e-04       4.58053e+02
  6.600      2.60836e+02       2.38053e+01      -3.90134e-01       6.03949e-04       4.52116e+02
  6.700      2.60269e+02       2.44566e+01      -4.24770e-01       5.97403e-04       4.46244e+02
  6.800      2.59669e+02       2.50560e+01      -4.72315e-01       5.90988e-04       4.40434e+02
  6.900      2.59043e+02       2.56120e+01      -5.38997e-01       5.84686e-04       4.34687e+02
  7.000      2.58399e+02       2.61330e+01      -6.31027e-01       5.78477e-04       4.29001e+02
  7.100      2.57744e+02       2.66274e+01      -7.54548e-01       5.72342e-04       4.23376e+02
  7.200      2.57085e+02       2.71019e+01      -9.10155e-01       5.66268e-04       4.17811e+02
  7.300      2.56422e+02       2.75604e+01      -1.08878e+00       5.60249e-04       4.12305e+02
  7.400      2.55758e+02       2.80066e+01      -1.28039e+00       5.54281e-04       4.06857e+02
  7.500      2.55096e+02       2.84440e+01      -1.47495e+00       5.48359e-04       4.01467e+02
  7.600      2.54436e+02       2.88761e+01      -1.66285e+00       5.42480e-04       3.96135e+02
  7.700      2.53775e+02       2.93056e+01      -1.83871e+00       5.36648e-04       3.90860e+02
  7.800      2.53110e+02       2.97346e+01      -1.99946e+00       5.30875e-04       3.85641e+02
  7.900      2.52434e+02       3.01654e+01      -2.14202e+00       5.25171e-04       3.80479e+02
  8.000      2.51744e+02       3.05999e+01      -2.26335e+00       5.19543e-04       3.75373e+02
  8.100      2.51035e+02       3.10385e+01      -2.36181e+00       5.14000e-04       3.70322e+02
  8.200      2.50312e+02       3.14718e+01      -2.44282e+00       5.08531e-04       3.65326e+02
  8.300      2.49580e+02       3.18872e+01      -2.51402e+00       5.03123e-04       3.60384e+02
  8.400      2.48845e+02       3.22724e+01      -2.58305e+00       4.97763e-04       3.55495e+02
  8.500      2.48113e+02       3.26148e+01      -2.65753e+00       4.92438e-04       3.50658e+02
  8.600      2.47389e+02       3.29051e+01      -2.74332e+00       4.87139e-04       3.45872e+02
  8.700      2.46674e+02       3.31516e+01      -2.83551e+00       4.81863e-04       3.41137e+02
  8.800      2.45967e+02       3.33694e+01      -2.92517e+00       4.76613e-04       3.36453e+02
  8.900      2.45267e+02       3.35736e+01      -3.00335e+00       4.71392e-04       3.31820e+02
  9.000      2.44573e+02       3.37794e+01      -3.06111e+00       4.66202e-04       3.27238e+02
  9.100      2.43884e+02       3.40015e+01      -3.08972e+00       4.61046e-04       3.22708e+02
  9.200      2.43198e+02       3.42459e+01      -3.08533e+00       4.55927e-04       3.18227e+02
  9.300      2.42512e+02       3.45101e+01      -3.04890e+00       4.50851e-04       3.13797e+02
  9.400      2.41823e+02       3.47914e+01      -2.98158e+00       4.45825e-04       3.09417e+02
  9.500      2.41126e+02       3.50869e+01      -2.88452e+00       4.40853e-04       3.05085e+02
  9.600      2.40420e+02       3.53938e+01      -2.75888e+00       4.35942e-04       3.00802e+02
  9.700      2.39700e+02       3.57086e+01      -2.60715e+00       4.31094e-04       2.96566e+02
  9.800      2.38970e+02       3.60227e+01      -2.44138e+00       4.26304e-04       2.92378e+02
  9.900      2.38236e+02       3.63256e+01      -2.27781e+00       4.21562e-04       2.88238e+02
 10.000      2.37503e+02       3.66065e+01      -2.13265e+00       4.16856e-04       2.84143e+02
 10.100      2.36777e+02       3.68549e+01      -2.02214e+00       4.12179e-04       2.80096e+02
 10.200      2.36062e+02       3.70600e+01      -1.96252e+00       4.07520e-04       2.76094e+02
 10.300      2.35364e+02       3.72126e+01      -1.96790e+00       4.02873e-04       2.72138e+02
 10.400      2.34679e+02       3.73176e+01      -2.03230e+00       3.98242e-04       2.68227e+02
 10.500      2.33998e+02       3.73873e+01      -2.13868e+00       3.93643e-04       2.64361e+02
 10.600      2.33315e+02       3.74343e+01      -2.26986e+00       3.89089e-04       2.60539e+02
 10.700      2.32619e+02       3.74711e+01      -2.40867e+00       3.84592e-04       2.56761e+02
 10.800      2.31905e+02       3.75102e+01      -2.53795e+00       3.80165e-04       2.53025e+02
 10.900      2.31162e+02       3.75641e+01      -2.64056e+00       3.75821e-04       2.49332e+02
 11.000      2.30387e+02       3.76419e+01      -2.70787e+00       3.71562e-04       2.45681e+02
 11.100      2.29589e+02       3.77445e+01      -2.75131e+00       3.67377e-04       2.42072e+02
 11.200      2.28775e+02       3.78717e+01      -2.78515e+00       3.63249e-04       2.38504e+02
 11.300      2.27955e+02       3.80232e+01      -2.82369e+00       3.59165e-04       2.34977e+02
 11.400      2.27137e+02       3.81989e+01      -2.88120e+00       3.55110e-04       2.31490e+02
 11.500      2.26331e+02       3.83985e+01      -2.97197e+00       3.51070e-04       2.28044e+02
 11.600      2.25544e+02       3.86218e+01      -3.11029e+00       3.47031e-04       2.24637e+02
 11.700      2.24783e+02       3.88657e+01      -3.30504e+00       3.42986e-04       2.21270e+02
 11.800      2.24047e+02       3.91194e+01      -3.54946e+00       3.38937e-04       2.17942e+02
 11.900      2.23333e+02       3.93703e+01      -3.83394e+00       3.34891e-04       2.14653e+02
 12.000      2.22636e+02       3.96061e+01      -4.14890e+00       3.30853e-04       2.11404e+02
 12.100      2.21955e+02       3.98144e+01      -4.48472e+00       3.26829e-04       2.08193e+02
 12.200      2.21285e+02       3.99828e+01      -4.83181e+00       3.22824e-04       2.05022e+02
 12.300      2.20625e+02       4.00987e+01      -5.18056e+00       3.18844e-04       2.01890e+02
 12.400      2.19970e+02       4.01501e+01      -5.52140e+00       3.14893e-04       1.98797e+02
 12.500      2.19320e+02       4.01314e+01      -5.84634e+00       3.10974e-04       1.95742e+02
 12.600      2.18674e+02       4.00466e+01      -6.14945e+00       3.07086e-04       1.92726e+02
 12.700      2.18034e+02       3.99001e+01      -6.42493e+00       3.03229e-04       1.89747e+02
 12.800      2.17399e+02       3.96963e+01      -6.66701e+00       2.99400e-04       1.86806e+02
 12.900      2.16771e+02       3.94396e+01      -6.86990e+00       2.95601e-04       1.83903e+02
 13.000      2.16150e+02       3.91347e+01      -7.02781e+00       2.91829e-04       1.81036e+02
 13.100      2.15536e+02       3.87858e+01      -7.13495e+00       2.88085e-04       1.78206e+02
 13.200      2.14930e+02       3.83974e+01      -7.18555e+00       2.84367e-04       1.75412e+02
 13.300      2.14333e+02       3.79733e+01      -7.17535e+00       2.80675e-04       1.72653e+02
 13.400      2.13746e+02       3.75129e+01      -7.10981e+00       2.77008e-04       1.69931e+02
 13.500      2.13170e+02       3.70137e+01      -6.99810e+00       2.73366e-04       1.67244e+02
 13.600      2.12605e+02       3.64733e+01      -6.84942e+00       2.69746e-04       1.64593e+02
 13.700      2.12054e+02       3.58895e+01      -6.67299e+00       2.66150e-04       1.61978e+02
 13.800      2.11518e+02       3.52598e+01      -6.47798e+00       2.62575e-04       1.59398e+02
 13.900      2.10997e+02       3.45818e+01      -6.27360e+00       2.59022e-04       1.56854e+02
 14.000      2.10493e+02       3.38531e+01      -6.06906e+00       2.55490e-04       1.54345e+02
 14.100      2.10006e+02       3.30715e+01      -5.87353e+00       2.51977e-04       1.51871e+02
 14.200      2.09539e+02       3.22344e+01      -5.69620e+00       2.48485e-04       1.49433e+02
 14.300      2.09092e+02       3.13438e+01      -5.54172e+00       2.45010e-04       1.47029e+02
 14.400      2.08668e+02       3.04100e+01      -5.40560e+00       2.41553e-04       1.44660e+02
 14.500      2.08267e+02       2.94443e+01      -5.28221e+00       2.38110e-04       1.42325e+02
 14.600      2.07892e+02       2.84581e+01      -5.16595e+00       2.34680e-04       1.40022e+02
 14.700      2.07544e+02       2.74627e+01      -5.05122e+00       2.31262e-04       1.37752e+02
 14.800      2.07225e+02       2.64694e+01      -4.93241e+00       2.27854e-04       1.35513e+02
 14.900      2.06938e+02       2.54896e+01      -4.80390e+00       2.24455e-04       1.33306e+02
 15.000      2.06683e+02       2.45347e+01      -4.66008e+00       2.21063e-04       1.31130e+02
 15.100      2.06462e+02       2.36159e+01      -4.49536e+00       2.17677e-04       1.28984e+02
 15.200      2.06277e+02       2.27447e+01      -4.30411e+00       2.14296e-04       1.26867e+02
 15.300      2.06131e+02       2.19324e+01      -4.08074e+00       2.10920e-04       1.24780e+02
 15.400      2.06023e+02       2.11863e+01      -3.82200e+00       2.07550e-04       1.22721e+02
 15.500      2.05951e+02       2.05020e+01      -3.53159e+00       2.04190e-04       1.20693e+02
 15.600      2.05913e+02       1.98731e+01      -3.21445e+00       2.00847e-04       1.18695e+02
 15.700      2.05907e+02       1.92932e+01      -2.87553e+00       1.97527e-04       1.16729e+02
 15.800      2.05928e+02       1.87556e+01      -2.51976e+00       1.94235e-04       1.14795e+02
 15.900      2.05975e+02       1.82540e+01      -2.15210e+00       1.90975e-04       1.12895e+02
 16.000      2.06046e+02       1.77819e+01      -1.77748e+00       1.87754e-04       1.11028e+02
 16.100      2.06136e+02       1.73328e+01      -1.40085e+00       1.84575e-04       1.09196e+02
 16.200      2.06244e+02       1.69002e+01      -1.02716e+00       1.81442e-04       1.07399e+02
 16.300      2.06367e+02       1.64777e+01      -6.61349e-01       1.78359e-04       1.05637e+02
 16.400      2.06501e+02       1.60587e+01      -3.08356e-01       1.75330e-04       1.03911e+02
 16.500      2.06646e+02       1.56369e+01       2.68708e-02       1.72358e-04       1.02221e+02
 16.600      2.06797e+02       1.52057e+01       3.39387e-01       1.69445e-04       1.00567e+02
 16.700      2.06952e+02       1.47589e+01       6.24542e-01       1.66595e-04       9.89493e+01
 16.800      2.07110e+02       1.42953e+01       8.81267e-01       1.63806e-04       9.73672e+01
 16.900      2.07272e+02       1.38162e+01       1.11092e+00       1.61076e-04       9.58190e+01
 17.000      2.07436e+02       1.33234e+01       1.31488e+00       1.58401e-04       9.43031e+01
 17.100      2.07605e+02       1.28186e+01       1.49453e+00       1.55780e-04       9.28179e+01
 17.200      2.07777e+02       1.23033e+01       1.65128e+00       1.53210e-04       9.13621e+01
 17.300      2.07953e+02       1.17792e+01       1.78649e+00       1.50688e-04       8.99342e+01
 17.400      2.08133e+02       1.12480e+01       1.90158e+00       1.48212e-04       8.85330e+01
 17.500      2.08316e+02       1.07113e+01       1.99791e+00       1.45780e-04       8.71572e+01
 17.600      2.08504e+02       1.01708e+01       2.07689e+00       1.43390e-04       8.58056e+01
 17.700      2.08696e+02       9.62807e+00       2.13990e+00       1.41040e-04       8.44771e+01
 17.800      2.08892e+02       9.08484e+00       2.18833e+00       1.38728e-04       8.31707e+01
 17.900      2.09093e+02       8.54270e+00       2.22356e+00       1.36453e-04       8.18851e+01
 18.000      2.09299e+02       8.00333e+00       2.24699e+00       1.34212e-04       8.06195e+01
 18.100      2.09509e+02       7.46838e+00       2.26001e+00       1.32004e-04       7.93729e+01
 18.200      2.09724e+02       6.93948e+00       2.26400e+00       1.29828e-04       7.81445e+01
 18.300      2.09944e+02       6.41831e+00       2.26036e+00       1.27682e-04       7.69333e+01
 18.400      2.10169e+02       5.90649e+00       2.25046e+00       1.25564e-04       7.57385e+01
 18.500      2.10399e+02       5.40567e+00       2.23571e+00       1.23474e-04       7.45593e+01
 18.600      2.10635e+02       4.91752e+00       2.21749e+00       1.21410e-04       7.33951e+01
 18.700      2.10875e+02       4.44367e+00       2.19718e+00       1.19372e-04       7.22451e+01
 18.800      2.11122e+02       3.98579e+00       2.17619e+00       1.17357e-04       7.11087e+01
 18.900      2.11374e+02       3.54550e+00       2.15588e+00       1.15364e-04       6.99851e+01
 19.000      2.11632e+02       3.12410e+00       2.13742e+00       1.13395e-04       6.88741e+01
 19.100      2.11895e+02       2.72141e+00       2.12099e+00       1.11448e-04       6.77759e+01
 19.200      2.12162e+02       2.33693e+00       2.10655e+00       1.09526e-04       6.66909e+01
 19.300      2.12432e+02       1.97016e+00       2.09409e+00       1.07630e-04       6.56196e+01
 19.400      2.12705e+02       1.62057e+00       2.08355e+00       1.05760e-04       6.45623e+01
 19.500      2.12979e+02       1.28766e+00       2.07492e+00       1.03917e-04       6.35194e+01
 19.600      2.13255e+02       9.70913e-01       2.06814e+00       1.02103e-04       6.24912e+01
 19.700      2.13530e+02       6.69829e-01       2.06320e+00       1.00318e-04       6.14780e+01
 19.800      2.13805e+02       3.83902e-01       2.06006e+00       9.85628e-05       6.04800e+01
 19.900      2.14078e+02       1.12609e-01       2.05869e+00       9.68380e-05       5.94976e+01
 20.000      2.14349e+02      -1.44553e-01       2.05904e+00       9.51441e-05       5.85308e+01
 20.100      2.14616e+02      -3.88093e-01       2.06110e+00       9.34816e-05       5.75799e+01
 20.200      2.14880e+02      -6.18521e-01       2.06482e+00       9.18509e-05       5.66450e+01
 20.300      2.15139e+02      -8.36343e-01       2.07017e+00       9.02525e-05       5.57262e+01
