# Data Source: NASA GEOS5 Near-Real-Time
# Model Time = 2011-06-07 18:00:00
# Location = [  39.1026,  -84.5123 ]
# Fields = [ Z(km), T(K), U(m/s), V(m/s), R(g/cm3), P(mbar) ]
# Ground Height = 0.165
  0.000      3.06139e+02       3.15150e+00       8.23022e-01       1.15445e-03       1.01432e+03
  0.100      3.05431e+02       3.26048e+00       8.60135e-01       1.14414e-03       1.00293e+03
  0.200      3.04748e+02       3.37002e+00       8.93357e-01       1.13382e-03       9.91667e+02
  0.300      3.03991e+02       3.47797e+00       9.37697e-01       1.12389e-03       9.80546e+02
  0.400      3.03065e+02       3.58095e+00       1.00735e+00       1.11473e-03       9.69591e+02
  0.500      3.01981e+02       3.64722e+00       1.09725e+00       1.10627e-03       9.58785e+02
  0.600      3.00860e+02       3.61647e+00       1.18299e+00       1.09798e-03       9.48072e+02
  0.700      2.99786e+02       3.47106e+00       1.25695e+00       1.08953e-03       9.37418e+02
  0.800      2.98745e+02       3.29692e+00       1.35332e+00       1.08099e-03       9.26839e+02
  0.900      2.97718e+02       3.18407e+00       1.50030e+00       1.07245e-03       9.16354e+02
  1.000      2.96738e+02       3.14876e+00       1.64423e+00       1.06379e-03       9.05961e+02
  1.100      2.95859e+02       3.17611e+00       1.69903e+00       1.05481e-03       8.95655e+02
  1.200      2.95085e+02       3.24071e+00       1.63696e+00       1.04550e-03       8.85432e+02
  1.300      2.94358e+02       3.30436e+00       1.50189e+00       1.03609e-03       8.75297e+02
  1.400      2.93627e+02       3.33482e+00       1.33384e+00       1.02675e-03       8.65254e+02
  1.500      2.92891e+02       3.32932e+00       1.13720e+00       1.01749e-03       8.55302e+02
  1.600      2.92165e+02       3.29337e+00       9.06101e-01       1.00826e-03       8.45442e+02
  1.700      2.91460e+02       3.23859e+00       6.21978e-01       9.99022e-04       8.35672e+02
  1.800      2.90785e+02       3.18331e+00       2.52250e-01       9.89739e-04       8.25989e+02
  1.900      2.90145e+02       3.14925e+00      -2.22429e-01       9.80394e-04       8.16390e+02
  2.000      2.89521e+02       3.17456e+00      -7.45353e-01       9.71062e-04       8.06879e+02
  2.100      2.88884e+02       3.30266e+00      -1.23437e+00       9.61842e-04       7.97460e+02
  2.200      2.88226e+02       3.54331e+00      -1.64193e+00       9.52763e-04       7.88135e+02
  2.300      2.87574e+02       3.84454e+00      -1.98403e+00       9.43732e-04       7.78897e+02
  2.400      2.86954e+02       4.14911e+00      -2.28312e+00       9.34651e-04       7.69741e+02
  2.500      2.86366e+02       4.42205e+00      -2.55613e+00       9.25531e-04       7.60667e+02
  2.600      2.85781e+02       4.64665e+00      -2.81538e+00       9.16468e-04       7.51680e+02
  2.700      2.85174e+02       4.81043e+00      -3.07377e+00       9.07551e-04       7.42784e+02
  2.800      2.84531e+02       4.92701e+00      -3.34915e+00       8.98816e-04       7.33977e+02
  2.900      2.83848e+02       5.02134e+00      -3.66151e+00       8.90274e-04       7.25256e+02
  3.000      2.83120e+02       5.11385e+00      -4.02774e+00       8.81931e-04       7.16617e+02
  3.100      2.82359e+02       5.20495e+00      -4.45121e+00       8.73748e-04       7.08060e+02
  3.200      2.81579e+02       5.28960e+00      -4.93161e+00       8.65679e-04       6.99584e+02
  3.300      2.80793e+02       5.36174e+00      -5.46745e+00       8.57687e-04       6.91188e+02
  3.400      2.80003e+02       5.41173e+00      -6.05333e+00       8.49756e-04       6.82872e+02
  3.500      2.79214e+02       5.42915e+00      -6.68296e+00       8.41879e-04       6.74634e+02
  3.600      2.78427e+02       5.40475e+00      -7.34993e+00       8.34045e-04       6.66474e+02
  3.700      2.77649e+02       5.33328e+00      -8.04737e+00       8.26238e-04       6.58390e+02
  3.800      2.76884e+02       5.21038e+00      -8.76832e+00       8.18441e-04       6.50379e+02
  3.900      2.76135e+02       5.03077e+00      -9.50556e+00       8.10642e-04       6.42441e+02
  4.000      2.75399e+02       4.78491e+00      -1.02509e+01       8.02861e-04       6.34577e+02
  4.100      2.74666e+02       4.46207e+00      -1.09958e+01       7.95121e-04       6.26787e+02
  4.200      2.73929e+02       4.05645e+00      -1.17268e+01       7.87448e-04       6.19074e+02
  4.300      2.73187e+02       3.60279e+00      -1.23885e+01       7.79846e-04       6.11435e+02
  4.400      2.72437e+02       3.15564e+00      -1.29056e+01       7.72313e-04       6.03868e+02
  4.500      2.71681e+02       2.76848e+00      -1.32047e+01       7.64848e-04       5.96371e+02
  4.600      2.70926e+02       2.46536e+00      -1.32712e+01       7.57427e-04       5.88944e+02
  4.700      2.70188e+02       2.23972e+00      -1.31517e+01       7.50008e-04       5.81586e+02
  4.800      2.69483e+02       2.08359e+00      -1.28952e+01       7.42548e-04       5.74298e+02
  4.900      2.68822e+02       1.99015e+00      -1.25415e+01       7.35018e-04       5.67080e+02
  5.000      2.68202e+02       1.95597e+00      -1.21018e+01       7.27432e-04       5.59934e+02
  5.100      2.67620e+02       1.97827e+00      -1.15818e+01       7.19807e-04       5.52861e+02
  5.200      2.67068e+02       2.05452e+00      -1.09870e+01       7.12162e-04       5.45862e+02
  5.300      2.66545e+02       2.18580e+00      -1.03207e+01       7.04509e-04       5.38938e+02
  5.400      2.66046e+02       2.37606e+00      -9.58401e+00       6.96859e-04       5.32088e+02
  5.500      2.65570e+02       2.62934e+00      -8.77808e+00       6.89219e-04       5.25314e+02
  5.600      2.65112e+02       2.94590e+00      -7.91145e+00       6.81605e-04       5.18614e+02
  5.700      2.64654e+02       3.30872e+00      -7.02674e+00       6.74060e-04       5.11988e+02
  5.800      2.64176e+02       3.69582e+00      -6.17637e+00       6.66637e-04       5.05435e+02
  5.900      2.63656e+02       4.08521e+00      -5.41273e+00       6.59386e-04       4.98953e+02
  6.000      2.63082e+02       4.46114e+00      -4.76957e+00       6.52333e-04       4.92541e+02
  6.100      2.62462e+02       4.82324e+00      -4.23450e+00       6.45453e-04       4.86199e+02
  6.200      2.61809e+02       5.17349e+00      -3.78808e+00       6.38714e-04       4.79924e+02
  6.300      2.61132e+02       5.51386e+00      -3.41093e+00       6.32084e-04       4.73715e+02
  6.400      2.60440e+02       5.83953e+00      -3.09419e+00       6.25542e-04       4.67570e+02
  6.500      2.59730e+02       6.13101e+00      -2.85195e+00       6.19095e-04       4.61489e+02
  6.600      2.58997e+02       6.36685e+00      -2.70134e+00       6.12749e-04       4.55470e+02
  6.700      2.58238e+02       6.52558e+00      -2.65947e+00       6.06510e-04       4.49510e+02
  6.800      2.57453e+02       6.59761e+00      -2.73237e+00       6.00375e-04       4.43610e+02
  6.900      2.56659e+02       6.61032e+00      -2.89135e+00       5.94302e-04       4.37770e+02
  7.000      2.55877e+02       6.59833e+00      -3.10094e+00       5.88246e-04       4.31989e+02
  7.100      2.55127e+02       6.59625e+00      -3.32568e+00       5.82163e-04       4.26269e+02
  7.200      2.54426e+02       6.63480e+00      -3.53258e+00       5.76017e-04       4.20609e+02
  7.300      2.53766e+02       6.71373e+00      -3.70821e+00       5.69829e-04       4.15011e+02
  7.400      2.53125e+02       6.81798e+00      -3.84848e+00       5.63649e-04       4.09473e+02
  7.500      2.52482e+02       6.93239e+00      -3.94939e+00       5.57524e-04       4.03994e+02
  7.600      2.51816e+02       7.04187e+00      -4.00695e+00       5.51500e-04       3.98576e+02
  7.700      2.51116e+02       7.13774e+00      -4.01980e+00       5.45601e-04       3.93216e+02
  7.800      2.50384e+02       7.22330e+00      -3.99154e+00       5.39816e-04       3.87913e+02
  7.900      2.49628e+02       7.30315e+00      -3.92627e+00       5.34128e-04       3.82667e+02
  8.000      2.48853e+02       7.38193e+00      -3.82813e+00       5.28523e-04       3.77476e+02
  8.100      2.48065e+02       7.46415e+00      -3.70111e+00       5.22987e-04       3.72339e+02
  8.200      2.47266e+02       7.55238e+00      -3.54695e+00       5.17512e-04       3.67254e+02
  8.300      2.46456e+02       7.64735e+00      -3.36515e+00       5.12100e-04       3.62223e+02
  8.400      2.45634e+02       7.74970e+00      -3.15518e+00       5.06752e-04       3.57244e+02
  8.500      2.44798e+02       7.86008e+00      -2.91647e+00       5.01468e-04       3.52317e+02
  8.600      2.43949e+02       7.97930e+00      -2.64875e+00       4.96250e-04       3.47442e+02
  8.700      2.43093e+02       8.11135e+00      -2.35767e+00       4.91084e-04       3.42618e+02
  8.800      2.42243e+02       8.26325e+00      -2.05438e+00       4.85942e-04       3.37846e+02
  8.900      2.41413e+02       8.44212e+00      -1.75026e+00       4.80799e-04       3.33124e+02
  9.000      2.40616e+02       8.65507e+00      -1.45668e+00       4.75629e-04       3.28454e+02
  9.100      2.39865e+02       8.90914e+00      -1.18503e+00       4.70406e-04       3.23834e+02
  9.200      2.39165e+02       9.20193e+00      -9.47190e-01       4.65126e-04       3.19264e+02
  9.300      2.38503e+02       9.51286e+00      -7.56058e-01       4.59816e-04       3.14746e+02
  9.400      2.37865e+02       9.81930e+00      -6.24638e-01       4.54506e-04       3.10278e+02
  9.500      2.37235e+02       1.00986e+01      -5.65929e-01       4.49227e-04       3.05862e+02
  9.600      2.36599e+02       1.03282e+01      -5.92937e-01       4.44007e-04       3.01497e+02
  9.700      2.35942e+02       1.04869e+01      -7.17292e-01       4.38872e-04       2.97184e+02
  9.800      2.35262e+02       1.05741e+01      -9.33950e-01       4.33829e-04       2.92922e+02
  9.900      2.34559e+02       1.06019e+01      -1.22674e+00       4.28870e-04       2.88709e+02
 10.000      2.33838e+02       1.05833e+01      -1.57929e+00       4.23989e-04       2.84545e+02
 10.100      2.33099e+02       1.05308e+01      -1.97523e+00       4.19179e-04       2.80428e+02
 10.200      2.32346e+02       1.04572e+01      -2.39819e+00       4.14434e-04       2.76359e+02
 10.300      2.31581e+02       1.03749e+01      -2.83149e+00       4.09748e-04       2.72334e+02
 10.400      2.30806e+02       1.02916e+01      -3.25478e+00       4.05116e-04       2.68355e+02
 10.500      2.30022e+02       1.02125e+01      -3.64534e+00       4.00536e-04       2.64420e+02
 10.600      2.29231e+02       1.01426e+01      -3.98041e+00       3.96006e-04       2.60530e+02
 10.700      2.28433e+02       1.00870e+01      -4.23724e+00       3.91522e-04       2.56684e+02
 10.800      2.27631e+02       1.00506e+01      -4.39305e+00       3.87083e-04       2.52881e+02
 10.900      2.26824e+02       1.00385e+01      -4.42518e+00       3.82685e-04       2.49123e+02
 11.000      2.26016e+02       1.00495e+01      -4.32494e+00       3.78327e-04       2.45407e+02
 11.100      2.25206e+02       1.00706e+01      -4.11190e+00       3.74004e-04       2.41735e+02
 11.200      2.24398e+02       1.00869e+01      -3.80909e+00       3.69716e-04       2.38105e+02
 11.300      2.23591e+02       1.00839e+01      -3.43951e+00       3.65458e-04       2.34516e+02
 11.400      2.22787e+02       1.00469e+01      -3.02618e+00       3.61228e-04       2.30969e+02
 11.500      2.21989e+02       9.96115e+00      -2.59210e+00       3.57024e-04       2.27463e+02
 11.600      2.21197e+02       9.81214e+00      -2.16019e+00       3.52844e-04       2.23998e+02
 11.700      2.20412e+02       9.59546e+00      -1.74408e+00       3.48685e-04       2.20572e+02
 11.800      2.19636e+02       9.32433e+00      -1.34124e+00       3.44547e-04       2.17187e+02
 11.900      2.18869e+02       9.01379e+00      -9.47587e-01       3.40430e-04       2.13842e+02
 12.000      2.18111e+02       8.67882e+00      -5.58977e-01       3.36334e-04       2.10538e+02
 12.100      2.17364e+02       8.33444e+00      -1.71302e-01       3.32257e-04       2.07274e+02
 12.200      2.16628e+02       7.99567e+00       2.19552e-01       3.28201e-04       2.04050e+02
 12.300      2.15904e+02       7.67750e+00       6.17712e-01       3.24165e-04       2.00867e+02
 12.400      2.15193e+02       7.39437e+00       1.02624e+00       3.20148e-04       1.97724e+02
 12.500      2.14493e+02       7.15523e+00       1.43827e+00       3.16151e-04       1.94621e+02
 12.600      2.13804e+02       6.96605e+00       1.84147e+00       3.12177e-04       1.91557e+02
 12.700      2.13126e+02       6.83274e+00       2.22345e+00       3.08224e-04       1.88532e+02
 12.800      2.12456e+02       6.76123e+00       2.57183e+00       3.04296e-04       1.85544e+02
 12.900      2.11794e+02       6.75742e+00       2.87420e+00       3.00392e-04       1.82593e+02
 13.000      2.11139e+02       6.82724e+00       3.11817e+00       2.96514e-04       1.79679e+02
 13.100      2.10490e+02       6.97661e+00       3.29137e+00       2.92664e-04       1.76800e+02
 13.200      2.09846e+02       7.21125e+00       3.38157e+00       2.88841e-04       1.73957e+02
 13.300      2.09209e+02       7.52734e+00       3.38489e+00       2.85044e-04       1.71149e+02
 13.400      2.08587e+02       7.90759e+00       3.30922e+00       2.81264e-04       1.68377e+02
 13.500      2.07988e+02       8.33371e+00       3.16336e+00       2.77494e-04       1.65643e+02
 13.600      2.07418e+02       8.78739e+00       2.95608e+00       2.73725e-04       1.62946e+02
 13.700      2.06887e+02       9.25033e+00       2.69616e+00       2.69952e-04       1.60288e+02
 13.800      2.06402e+02       9.70424e+00       2.39239e+00       2.66166e-04       1.57669e+02
 13.900      2.05969e+02       1.01308e+01       2.05354e+00       2.62362e-04       1.55091e+02
 14.000      2.05598e+02       1.05117e+01       1.68841e+00       2.58533e-04       1.52552e+02
 14.100      2.05296e+02       1.08287e+01       1.30577e+00       2.54675e-04       1.50055e+02
 14.200      2.05068e+02       1.10672e+01       9.13283e-01       2.50784e-04       1.47598e+02
 14.300      2.04910e+02       1.12292e+01       5.13744e-01       2.46868e-04       1.45182e+02
 14.400      2.04816e+02       1.13207e+01       1.08682e-01       2.42939e-04       1.42804e+02
 14.500      2.04777e+02       1.13481e+01      -3.00395e-01       2.39005e-04       1.40465e+02
 14.600      2.04788e+02       1.13174e+01      -7.11963e-01       2.35076e-04       1.38164e+02
 14.700      2.04840e+02       1.12348e+01      -1.12450e+00       2.31162e-04       1.35899e+02
 14.800      2.04929e+02       1.11067e+01      -1.53650e+00       2.27271e-04       1.33669e+02
 14.900      2.05046e+02       1.09390e+01      -1.94643e+00       2.23412e-04       1.31473e+02
 15.000      2.05184e+02       1.07382e+01      -2.35279e+00       2.19590e-04       1.29312e+02
 15.100      2.05337e+02       1.05102e+01      -2.75405e+00       2.15815e-04       1.27184e+02
 15.200      2.05498e+02       1.02613e+01      -3.14870e+00       2.12092e-04       1.25087e+02
 15.300      2.05661e+02       9.99713e+00      -3.53520e+00       2.08426e-04       1.23023e+02
 15.400      2.05824e+02       9.71999e+00      -3.91199e+00       2.04820e-04       1.20990e+02
 15.500      2.05987e+02       9.43149e+00      -4.27749e+00       2.01275e-04       1.18990e+02
 15.600      2.06150e+02       9.13319e+00      -4.63010e+00       1.97792e-04       1.17023e+02
 15.700      2.06312e+02       8.82668e+00      -4.96826e+00       1.94371e-04       1.15090e+02
 15.800      2.06474e+02       8.51351e+00      -5.29038e+00       1.91014e-04       1.13191e+02
 15.900      2.06635e+02       8.19527e+00      -5.59486e+00       1.87721e-04       1.11326e+02
 16.000      2.06794e+02       7.87351e+00      -5.88014e+00       1.84492e-04       1.09496e+02
 16.100      2.06953e+02       7.54980e+00      -6.14463e+00       1.81329e-04       1.07701e+02
 16.200      2.07110e+02       7.22573e+00      -6.38675e+00       1.78231e-04       1.05941e+02
 16.300      2.07264e+02       6.90285e+00      -6.60491e+00       1.75198e-04       1.04216e+02
 16.400      2.07417e+02       6.58274e+00      -6.79753e+00       1.72231e-04       1.02527e+02
 16.500      2.07568e+02       6.26696e+00      -6.96303e+00       1.69330e-04       1.00873e+02
 16.600      2.07716e+02       5.95705e+00      -7.09987e+00       1.66495e-04       9.92547e+01
 16.700      2.07861e+02       5.65373e+00      -7.20776e+00       1.63724e-04       9.76710e+01
 16.800      2.08004e+02       5.35677e+00      -7.28777e+00       1.61014e-04       9.61205e+01
 16.900      2.08144e+02       5.06590e+00      -7.34104e+00       1.58362e-04       9.46016e+01
 17.000      2.08283e+02       4.78087e+00      -7.36872e+00       1.55766e-04       9.31128e+01
 17.100      2.08420e+02       4.50141e+00      -7.37195e+00       1.53223e-04       9.16528e+01
 17.200      2.08555e+02       4.22725e+00      -7.35188e+00       1.50731e-04       9.02202e+01
 17.300      2.08689e+02       3.95815e+00      -7.30965e+00       1.48286e-04       8.88137e+01
 17.400      2.08821e+02       3.69383e+00      -7.24640e+00       1.45886e-04       8.74321e+01
 17.500      2.08953e+02       3.43402e+00      -7.16327e+00       1.43530e-04       8.60741e+01
 17.600      2.09083e+02       3.17847e+00      -7.06142e+00       1.41215e-04       8.47389e+01
 17.700      2.09213e+02       2.92692e+00      -6.94198e+00       1.38939e-04       8.34251e+01
 17.800      2.09343e+02       2.67909e+00      -6.80610e+00       1.36701e-04       8.21318e+01
 17.900      2.09472e+02       2.43473e+00      -6.65493e+00       1.34498e-04       8.08581e+01
 18.000      2.09602e+02       2.19357e+00      -6.48959e+00       1.32328e-04       7.96030e+01
 18.100      2.09731e+02       1.95535e+00      -6.31125e+00       1.30191e-04       7.83657e+01
 18.200      2.09861e+02       1.71981e+00      -6.12105e+00       1.28084e-04       7.71452e+01
 18.300      2.09992e+02       1.48668e+00      -5.92012e+00       1.26006e-04       7.59409e+01
 18.400      2.10123e+02       1.25570e+00      -5.70961e+00       1.23956e-04       7.47518e+01
 18.500      2.10255e+02       1.02660e+00      -5.49067e+00       1.21931e-04       7.35774e+01
 18.600      2.10389e+02       7.99132e-01      -5.26443e+00       1.19932e-04       7.24169e+01
 18.700      2.10524e+02       5.73019e-01      -5.03205e+00       1.17957e-04       7.12697e+01
 18.800      2.10660e+02       3.48007e-01      -4.79467e+00       1.16004e-04       7.01352e+01
 18.900      2.10798e+02       1.23879e-01      -4.55340e+00       1.14073e-04       6.90129e+01
 19.000      2.10938e+02      -9.92506e-02      -4.30920e+00       1.12164e-04       6.79031e+01
 19.100      2.11079e+02      -3.21158e-01      -4.06297e+00       1.10278e-04       6.68063e+01
 19.200      2.11222e+02      -5.41622e-01      -3.81561e+00       1.08417e-04       6.57230e+01
 19.300      2.11365e+02      -7.60412e-01      -3.56804e+00       1.06581e-04       6.46537e+01
 19.400      2.11510e+02      -9.77316e-01      -3.32113e+00       1.04770e-04       6.35987e+01
 19.500      2.11655e+02      -1.19210e+00      -3.07581e+00       1.02985e-04       6.25584e+01
 19.600      2.11801e+02      -1.40455e+00      -2.83296e+00       1.01228e-04       6.15331e+01
 19.700      2.11947e+02      -1.61444e+00      -2.59350e+00       9.94975e-05       6.05232e+01
 19.800      2.12094e+02      -1.82154e+00      -2.35832e+00       9.77954e-05       5.95290e+01
 19.900      2.12241e+02      -2.02564e+00      -2.12832e+00       9.61216e-05       5.85506e+01
 20.000      2.12387e+02      -2.22650e+00      -1.90441e+00       9.44767e-05       5.75883e+01
 20.100      2.12533e+02      -2.42391e+00      -1.68748e+00       9.28608e-05       5.66424e+01
 20.200      2.12679e+02      -2.61765e+00      -1.47844e+00       9.12743e-05       5.57129e+01
 20.300      2.12824e+02      -2.80747e+00      -1.27819e+00       8.97176e-05       5.48000e+01
