# Data Source: NASA MERRA (version 2)
# Model Time = 2011-05-13 18:00:00
# Location = [  39.1026,  -84.5123 ]
# Fields = [ Z(km), T(K), U(m/s), V(m/s), R(g/cm3), P(mbar) ]
# Ground Height = 0.165
  0.000      2.99633e+02       8.19628e-01       4.16123e+00       1.16953e-03       1.00574e+03
  0.100      2.99155e+02       7.88040e-01       4.04259e+00       1.15791e-03       9.94153e+02
  0.200      2.98582e+02       7.86446e-01       4.01741e+00       1.14680e-03       9.82724e+02
  0.300      2.97726e+02       8.73355e-01       4.26771e+00       1.13695e-03       9.71493e+02
  0.400      2.96588e+02       1.05575e+00       4.79384e+00       1.12834e-03       9.60455e+02
  0.500      2.95473e+02       1.25660e+00       5.29991e+00       1.11973e-03       9.49535e+02
  0.600      2.94614e+02       1.41403e+00       5.55521e+00       1.11015e-03       9.38676e+02
  0.700      2.93908e+02       1.54682e+00       5.65433e+00       1.10004e-03       9.27899e+02
  0.800      2.93186e+02       1.68726e+00       5.75172e+00       1.09007e-03       9.17232e+02
  0.900      2.92412e+02       1.82867e+00       5.89275e+00       1.08038e-03       9.06677e+02
  1.000      2.91619e+02       1.94358e+00       6.06336e+00       1.07082e-03       8.96215e+02
  1.100      2.90830e+02       2.03029e+00       6.25063e+00       1.06129e-03       8.85838e+02
  1.200      2.90058e+02       2.12426e+00       6.44407e+00       1.05175e-03       8.75548e+02
  1.300      2.89313e+02       2.26386e+00       6.63339e+00       1.04218e-03       8.65348e+02
  1.400      2.88605e+02       2.48741e+00       6.80830e+00       1.03253e-03       8.55241e+02
  1.500      2.87945e+02       2.83189e+00       6.95850e+00       1.02278e-03       8.45230e+02
  1.600      2.87331e+02       3.29877e+00       7.07361e+00       1.01294e-03       8.35314e+02
  1.700      2.86745e+02       3.85190e+00       7.14309e+00       1.00308e-03       8.25493e+02
  1.800      2.86170e+02       4.45333e+00       7.15644e+00       9.93249e-04       8.15765e+02
  1.900      2.85591e+02       5.06511e+00       7.10314e+00       9.83509e-04       8.06129e+02
  2.000      2.84989e+02       5.64959e+00       6.97288e+00       9.73916e-04       7.96584e+02
  2.100      2.84357e+02       6.18476e+00       6.76626e+00       9.64494e-04       7.87129e+02
  2.200      2.83701e+02       6.67121e+00       6.49963e+00       9.55221e-04       7.77763e+02
  2.300      2.83028e+02       7.11129e+00       6.19059e+00       9.46071e-04       7.68483e+02
  2.400      2.82343e+02       7.50737e+00       5.85673e+00       9.37020e-04       7.59290e+02
  2.500      2.81654e+02       7.86180e+00       5.51564e+00       9.28045e-04       7.50181e+02
  2.600      2.80966e+02       8.17606e+00       5.18172e+00       9.19126e-04       7.41156e+02
  2.700      2.80281e+02       8.44772e+00       4.85582e+00       9.10255e-04       7.32216e+02
  2.800      2.79602e+02       8.67336e+00       4.53518e+00       9.01429e-04       7.23360e+02
  2.900      2.78930e+02       8.84955e+00       4.21704e+00       8.92646e-04       7.14590e+02
  3.000      2.78267e+02       8.97287e+00       3.89865e+00       8.83900e-04       7.05905e+02
  3.100      2.77613e+02       9.03991e+00       3.57733e+00       8.75189e-04       6.97307e+02
  3.200      2.76971e+02       9.04906e+00       3.25617e+00       8.66509e-04       6.88794e+02
  3.300      2.76341e+02       9.00165e+00       2.94768e+00       8.57858e-04       6.80367e+02
  3.400      2.75725e+02       8.89925e+00       2.66522e+00       8.49233e-04       6.72024e+02
  3.500      2.75124e+02       8.74348e+00       2.42215e+00       8.40630e-04       6.63765e+02
  3.600      2.74538e+02       8.53590e+00       2.23185e+00       8.32046e-04       6.55589e+02
  3.700      2.73969e+02       8.27816e+00       2.10760e+00       8.23480e-04       6.47496e+02
  3.800      2.73416e+02       7.97474e+00       2.05732e+00       8.14935e-04       6.39484e+02
  3.900      2.72876e+02       7.63487e+00       2.08003e+00       8.06422e-04       6.31554e+02
  4.000      2.72345e+02       7.26820e+00       2.17397e+00       7.97955e-04       6.23705e+02
  4.100      2.71818e+02       6.88439e+00       2.33733e+00       7.89546e-04       6.15939e+02
  4.200      2.71292e+02       6.49309e+00       2.56833e+00       7.81208e-04       6.08255e+02
  4.300      2.70764e+02       6.10397e+00       2.86519e+00       7.72950e-04       6.00653e+02
  4.400      2.70228e+02       5.72594e+00       3.22551e+00       7.64786e-04       5.93134e+02
  4.500      2.69682e+02       5.36412e+00       3.64371e+00       7.56722e-04       5.85694e+02
  4.600      2.69123e+02       5.02238e+00       4.11320e+00       7.48765e-04       5.78334e+02
  4.700      2.68548e+02       4.70458e+00       4.62738e+00       7.40921e-04       5.71051e+02
  4.800      2.67952e+02       4.41461e+00       5.17965e+00       7.33197e-04       5.63844e+02
  4.900      2.67333e+02       4.15633e+00       5.76342e+00       7.25599e-04       5.56712e+02
  5.000      2.66687e+02       3.93362e+00       6.37208e+00       7.18133e-04       5.49654e+02
  5.100      2.66014e+02       3.74936e+00       6.99844e+00       7.10799e-04       5.42667e+02
  5.200      2.65316e+02       3.60298e+00       7.63322e+00       7.03586e-04       5.35751e+02
  5.300      2.64601e+02       3.49317e+00       8.26669e+00       6.96476e-04       5.28907e+02
  5.400      2.63872e+02       3.41864e+00       8.88913e+00       6.89453e-04       5.22132e+02
  5.500      2.63136e+02       3.37809e+00       9.49081e+00       6.82503e-04       5.15427e+02
  5.600      2.62399e+02       3.37019e+00       1.00620e+01       6.75610e-04       5.08791e+02
  5.700      2.61665e+02       3.39367e+00       1.05930e+01       6.68760e-04       5.02224e+02
  5.800      2.60940e+02       3.44702e+00       1.10746e+01       6.61940e-04       4.95724e+02
  5.900      2.60226e+02       3.52661e+00       1.15033e+01       6.55143e-04       4.89292e+02
  6.000      2.59523e+02       3.62740e+00       1.18796e+01       6.48370e-04       4.82925e+02
  6.100      2.58831e+02       3.74430e+00       1.22042e+01       6.41619e-04       4.76624e+02
  6.200      2.58151e+02       3.87224e+00       1.24774e+01       6.34891e-04       4.70387e+02
  6.300      2.57482e+02       4.00614e+00       1.26998e+01       6.28185e-04       4.64212e+02
  6.400      2.56825e+02       4.14093e+00       1.28721e+01       6.21501e-04       4.58100e+02
  6.500      2.56179e+02       4.27152e+00       1.29946e+01       6.14838e-04       4.52049e+02
  6.600      2.55545e+02       4.39341e+00       1.30684e+01       6.08197e-04       4.46059e+02
  6.700      2.54920e+02       4.50886e+00       1.31002e+01       6.01584e-04       4.40131e+02
  6.800      2.54304e+02       4.62460e+00       1.31002e+01       5.95007e-04       4.34268e+02
  6.900      2.53693e+02       4.74744e+00       1.30788e+01       5.88478e-04       4.28470e+02
  7.000      2.53086e+02       4.88417e+00       1.30465e+01       5.82004e-04       4.22742e+02
  7.100      2.52479e+02       5.04161e+00       1.30137e+01       5.75594e-04       4.17084e+02
  7.200      2.51871e+02       5.22656e+00       1.29906e+01       5.69257e-04       4.11499e+02
  7.300      2.51260e+02       5.44582e+00       1.29878e+01       5.63000e-04       4.05988e+02
  7.400      2.50643e+02       5.70620e+00       1.30157e+01       5.56832e-04       4.00554e+02
  7.500      2.50017e+02       6.01210e+00       1.30821e+01       5.50756e-04       3.95195e+02
  7.600      2.49384e+02       6.35480e+00       1.31819e+01       5.44763e-04       3.89905e+02
  7.700      2.48744e+02       6.72114e+00       1.33055e+01       5.38838e-04       3.84674e+02
  7.800      2.48097e+02       7.09795e+00       1.34433e+01       5.32969e-04       3.79493e+02
  7.900      2.47443e+02       7.47205e+00       1.35855e+01       5.27141e-04       3.74355e+02
  8.000      2.46783e+02       7.83027e+00       1.37226e+01       5.21343e-04       3.69250e+02
  8.100      2.46118e+02       8.15946e+00       1.38448e+01       5.15562e-04       3.64172e+02
  8.200      2.45448e+02       8.44643e+00       1.39426e+01       5.09787e-04       3.59112e+02
  8.300      2.44773e+02       8.67802e+00       1.40063e+01       5.04007e-04       3.54065e+02
  8.400      2.44095e+02       8.84108e+00       1.40263e+01       4.98212e-04       3.49024e+02
  8.500      2.43413e+02       8.92911e+00       1.39984e+01       4.92405e-04       3.43992e+02
  8.600      2.42728e+02       8.95060e+00       1.39306e+01       4.86617e-04       3.38991e+02
  8.700      2.42039e+02       8.91617e+00       1.38330e+01       4.80883e-04       3.34046e+02
  8.800      2.41346e+02       8.83640e+00       1.37152e+01       4.75236e-04       3.29178e+02
  8.900      2.40649e+02       8.72188e+00       1.35873e+01       4.69706e-04       3.24408e+02
  9.000      2.39948e+02       8.58321e+00       1.34589e+01       4.64324e-04       3.19757e+02
  9.100      2.39243e+02       8.43099e+00       1.33400e+01       4.59119e-04       3.15243e+02
  9.200      2.38534e+02       8.27581e+00       1.32404e+01       4.54116e-04       3.10884e+02
  9.300      2.37820e+02       8.12825e+00       1.31699e+01       4.49342e-04       3.06695e+02
  9.400      2.37102e+02       7.99893e+00       1.31385e+01       4.44821e-04       3.02693e+02
  9.500      2.36379e+02       7.89837e+00       1.31558e+01       4.40579e-04       2.98892e+02
  9.600      2.35652e+02       7.83211e+00       1.32260e+01       4.36617e-04       2.95294e+02
  9.700      2.34921e+02       7.79720e+00       1.33433e+01       4.32908e-04       2.91876e+02
  9.800      2.34185e+02       7.78984e+00       1.35012e+01       4.29419e-04       2.88617e+02
  9.900      2.33445e+02       7.80624e+00       1.36929e+01       4.26122e-04       2.85497e+02
 10.000      2.32702e+02       7.84260e+00       1.39120e+01       4.22987e-04       2.82493e+02
 10.100      2.31954e+02       7.89514e+00       1.41517e+01       4.19986e-04       2.79589e+02
 10.200      2.31203e+02       7.96005e+00       1.44054e+01       4.17093e-04       2.76764e+02
 10.300      2.30449e+02       8.03355e+00       1.46665e+01       4.14281e-04       2.74001e+02
 10.400      2.29692e+02       8.11183e+00       1.49283e+01       4.11525e-04       2.71283e+02
 10.500      2.28931e+02       8.19111e+00       1.51843e+01       4.08799e-04       2.68594e+02
 10.600      2.28168e+02       8.26760e+00       1.54278e+01       4.06079e-04       2.65918e+02
 10.700      2.27402e+02       8.33749e+00       1.56521e+01       4.03343e-04       2.63239e+02
 10.800      2.26634e+02       8.39699e+00       1.58507e+01       4.00566e-04       2.60544e+02
 10.900      2.25863e+02       8.44232e+00       1.60169e+01       3.97727e-04       2.57817e+02
 11.000      2.25090e+02       8.46967e+00       1.61441e+01       3.94804e-04       2.55046e+02
 11.100      2.24315e+02       8.47526e+00       1.62256e+01       3.91775e-04       2.52219e+02
 11.200      2.23538e+02       8.45530e+00       1.62548e+01       3.88622e-04       2.49323e+02
 11.300      2.22761e+02       8.40826e+00       1.62283e+01       3.85330e-04       2.46350e+02
 11.400      2.21985e+02       8.33721e+00       1.61490e+01       3.81893e-04       2.43303e+02
 11.500      2.21215e+02       8.24576e+00       1.60207e+01       3.78310e-04       2.40185e+02
 11.600      2.20454e+02       8.13754e+00       1.58469e+01       3.74578e-04       2.36996e+02
 11.700      2.19703e+02       8.01616e+00       1.56316e+01       3.70695e-04       2.33741e+02
 11.800      2.18967e+02       7.88526e+00       1.53784e+01       3.66660e-04       2.30422e+02
 11.900      2.18249e+02       7.74844e+00       1.50909e+01       3.62470e-04       2.27042e+02
 12.000      2.17552e+02       7.60934e+00       1.47731e+01       3.58126e-04       2.23605e+02
 12.100      2.16878e+02       7.47156e+00       1.44284e+01       3.53628e-04       2.20112e+02
 12.200      2.16232e+02       7.33875e+00       1.40608e+01       3.48974e-04       2.16568e+02
 12.300      2.15615e+02       7.21450e+00       1.36739e+01       3.44167e-04       2.12976e+02
 12.400      2.15031e+02       7.10246e+00       1.32713e+01       3.39207e-04       2.09338e+02
 12.500      2.14484e+02       7.00623e+00       1.28570e+01       3.34095e-04       2.05659e+02
 12.600      2.13976e+02       6.92944e+00       1.24345e+01       3.28835e-04       2.01942e+02
 12.700      2.13511e+02       6.87558e+00       1.20075e+01       3.23430e-04       1.98190e+02
 12.800      2.13088e+02       6.84479e+00       1.15781e+01       3.17897e-04       1.94414e+02
 12.900      2.12707e+02       6.83371e+00       1.11466e+01       3.12267e-04       1.90629e+02
 13.000      2.12364e+02       6.83881e+00       1.07132e+01       3.06570e-04       1.86850e+02
 13.100      2.12058e+02       6.85655e+00       1.02782e+01       3.00835e-04       1.83090e+02
 13.200      2.11787e+02       6.88340e+00       9.84181e+00       2.95089e-04       1.79364e+02
 13.300      2.11548e+02       6.91583e+00       9.40424e+00       2.89358e-04       1.75682e+02
 13.400      2.11341e+02       6.95032e+00       8.96578e+00       2.83664e-04       1.72056e+02
 13.500      2.11161e+02       6.98332e+00       8.52664e+00       2.78031e-04       1.68496e+02
 13.600      2.11008e+02       7.01131e+00       8.08709e+00       2.72477e-04       1.65011e+02
 13.700      2.10880e+02       7.03075e+00       7.64735e+00       2.67023e-04       1.61609e+02
 13.800      2.10774e+02       7.03812e+00       7.20768e+00       2.61685e-04       1.58299e+02
 13.900      2.10688e+02       7.02987e+00       6.76831e+00       2.56480e-04       1.55086e+02
 14.000      2.10620e+02       7.00249e+00       6.32948e+00       2.51420e-04       1.51978e+02
 14.100      2.10568e+02       6.95247e+00       5.89144e+00       2.46520e-04       1.48979e+02
 14.200      2.10531e+02       6.87815e+00       5.45456e+00       2.41783e-04       1.46091e+02
 14.300      2.10506e+02       6.78061e+00       5.01938e+00       2.37203e-04       1.43307e+02
 14.400      2.10494e+02       6.66118e+00       4.58647e+00       2.32773e-04       1.40622e+02
 14.500      2.10492e+02       6.52117e+00       4.15638e+00       2.28484e-04       1.38030e+02
 14.600      2.10500e+02       6.36190e+00       3.72970e+00       2.24330e-04       1.35526e+02
 14.700      2.10516e+02       6.18469e+00       3.30698e+00       2.20304e-04       1.33104e+02
 14.800      2.10539e+02       5.99086e+00       2.88877e+00       2.16401e-04       1.30760e+02
 14.900      2.10569e+02       5.78173e+00       2.47566e+00       2.12614e-04       1.28490e+02
 15.000      2.10602e+02       5.55861e+00       2.06819e+00       2.08939e-04       1.26288e+02
 15.100      2.10640e+02       5.32282e+00       1.66694e+00       2.05368e-04       1.24152e+02
 15.200      2.10679e+02       5.07568e+00       1.27248e+00       2.01898e-04       1.22077e+02
 15.300      2.10720e+02       4.81851e+00       8.85348e-01       1.98524e-04       1.20060e+02
 15.400      2.10760e+02       4.55263e+00       5.06131e-01       1.95240e-04       1.18097e+02
 15.500      2.10799e+02       4.27935e+00       1.35381e-01       1.92043e-04       1.16185e+02
 15.600      2.10836e+02       3.99999e+00      -2.26334e-01       1.88929e-04       1.14321e+02
 15.700      2.10869e+02       3.71588e+00      -5.78448e-01       1.85893e-04       1.12501e+02
 15.800      2.10897e+02       3.42833e+00      -9.20401e-01       1.82931e-04       1.10723e+02
 15.900      2.10919e+02       3.13865e+00      -1.25163e+00       1.80040e-04       1.08985e+02
 16.000      2.10933e+02       2.84817e+00      -1.57156e+00       1.77217e-04       1.07283e+02
 16.100      2.10939e+02       2.55821e+00      -1.87964e+00       1.74457e-04       1.05616e+02
 16.200      2.10935e+02       2.27007e+00      -2.17531e+00       1.71759e-04       1.03980e+02
 16.300      2.10921e+02       1.98510e+00      -2.45798e+00       1.69119e-04       1.02375e+02
 16.400      2.10894e+02       1.70458e+00      -2.72712e+00       1.66533e-04       1.00797e+02
 16.500      2.10854e+02       1.42983e+00      -2.98216e+00       1.63999e-04       9.92442e+01
 16.600      2.10800e+02       1.16136e+00      -3.22292e+00       1.61515e-04       9.77162e+01
 16.700      2.10735e+02       8.98937e-01      -3.44960e+00       1.59078e-04       9.62119e+01
 16.800      2.10659e+02       6.42291e-01      -3.66240e+00       1.56685e-04       9.47306e+01
 16.900      2.10575e+02       3.91132e-01      -3.86155e+00       1.54333e-04       9.32714e+01
 17.000      2.10483e+02       1.45187e-01      -4.04725e+00       1.52021e-04       9.18338e+01
 17.100      2.10385e+02      -9.58224e-02      -4.21971e+00       1.49746e-04       9.04172e+01
 17.200      2.10282e+02      -3.32174e-01      -4.37914e+00       1.47505e-04       8.90209e+01
 17.300      2.10176e+02      -5.64140e-01      -4.52576e+00       1.45298e-04       8.76445e+01
 17.400      2.10069e+02      -7.92008e-01      -4.65977e+00       1.43121e-04       8.62872e+01
 17.500      2.09961e+02      -1.01605e+00      -4.78140e+00       1.40973e-04       8.49486e+01
 17.600      2.09854e+02      -1.23655e+00      -4.89084e+00       1.38853e-04       8.36282e+01
 17.700      2.09749e+02      -1.45378e+00      -4.98832e+00       1.36758e-04       8.23255e+01
 17.800      2.09649e+02      -1.66801e+00      -5.07404e+00       1.34687e-04       8.10400e+01
 17.900      2.09554e+02      -1.87953e+00      -5.14822e+00       1.32638e-04       7.97712e+01
 18.000      2.09466e+02      -2.08862e+00      -5.21106e+00       1.30610e-04       7.85187e+01
 18.100      2.09386e+02      -2.29555e+00      -5.26278e+00       1.28602e-04       7.72820e+01
 18.200      2.09316e+02      -2.50060e+00      -5.30359e+00       1.26613e-04       7.60609e+01
 18.300      2.09257e+02      -2.70404e+00      -5.33370e+00       1.24640e-04       7.48549e+01
 18.400      2.09211e+02      -2.90616e+00      -5.35332e+00       1.22684e-04       7.36636e+01
 18.500      2.09179e+02      -3.10724e+00      -5.36267e+00       1.20742e-04       7.24867e+01
 18.600      2.09162e+02      -3.30755e+00      -5.36195e+00       1.18815e-04       7.13239e+01
 18.700      2.09162e+02      -3.50737e+00      -5.35138e+00       1.16900e-04       7.01748e+01
 18.800      2.09181e+02      -3.70686e+00      -5.33115e+00       1.14998e-04       6.90391e+01
 18.900      2.09217e+02      -3.90547e+00      -5.30134e+00       1.13110e-04       6.79173e+01
 19.000      2.09271e+02      -4.10235e+00      -5.26197e+00       1.11237e-04       6.68096e+01
 19.100      2.09341e+02      -4.29668e+00      -5.21307e+00       1.09380e-04       6.57164e+01
 19.200      2.09427e+02      -4.48760e+00      -5.15466e+00       1.07541e-04       6.46382e+01
 19.300      2.09528e+02      -4.67428e+00      -5.08679e+00       1.05722e-04       6.35752e+01
 19.400      2.09644e+02      -4.85589e+00      -5.00946e+00       1.03922e-04       6.25278e+01
 19.500      2.09773e+02      -5.03157e+00      -4.92272e+00       1.02145e-04       6.14961e+01
 19.600      2.09915e+02      -5.20049e+00      -4.82659e+00       1.00390e-04       6.04805e+01
 19.700      2.10070e+02      -5.36181e+00      -4.72110e+00       9.86582e-05       5.94812e+01
 19.800      2.10236e+02      -5.51469e+00      -4.60627e+00       9.69511e-05       5.84982e+01
 19.900      2.10414e+02      -5.65829e+00      -4.48214e+00       9.52692e-05       5.75319e+01
 20.000      2.10601e+02      -5.79177e+00      -4.34873e+00       9.36133e-05       5.65822e+01
 20.100      2.10798e+02      -5.91429e+00      -4.20607e+00       9.19840e-05       5.56494e+01
 20.200      2.11004e+02      -6.02501e+00      -4.05418e+00       9.03819e-05       5.47335e+01
 20.300      2.11218e+02      -6.12309e+00      -3.89311e+00       8.88075e-05       5.38346e+01
