# Data Source: NASA GEOS5 Near-Real-Time
# Model Time = 2010-12-13 18:00:00
# Location = [  39.7393, -104.9900 ]
# Fields = [ Z(km), T(K), U(m/s), V(m/s), R(g/cm3), P(mbar) ]
# Ground Height = 1.589
  0.000      2.98395e+02       5.42129e+00      -3.45395e+00       1.18301e-03       1.01312e+03
  0.100      2.97769e+02       5.40209e+00      -3.46246e+00       1.17162e-03       1.00126e+03
  0.200      2.97144e+02       5.38226e+00      -3.47112e+00       1.16035e-03       9.89546e+02
  0.300      2.96514e+02       5.36769e+00      -3.47855e+00       1.14920e-03       9.77960e+02
  0.400      2.95874e+02       5.36304e+00      -3.48318e+00       1.13818e-03       9.66497e+02
  0.500      2.95223e+02       5.36200e+00      -3.48166e+00       1.12731e-03       9.55157e+02
  0.600      2.94559e+02       5.35251e+00      -3.47031e+00       1.11658e-03       9.43941e+02
  0.700      2.93883e+02       5.32259e+00      -3.45710e+00       1.10600e-03       9.32850e+02
  0.800      2.93194e+02       5.26060e+00      -3.46034e+00       1.09557e-03       9.21884e+02
  0.900      2.92498e+02       5.17609e+00      -3.49089e+00       1.08526e-03       9.11042e+02
  1.000      2.91818e+02       5.11599e+00      -3.54574e+00       1.07499e-03       9.00318e+02
  1.100      2.91178e+02       5.11219e+00      -3.61397e+00       1.06465e-03       8.89709e+02
  1.200      2.90615e+02       5.11427e+00      -3.65627e+00       1.05414e-03       8.79220e+02
  1.300      2.90156e+02       5.05518e+00      -3.62906e+00       1.04336e-03       8.68859e+02
  1.400      2.89726e+02       4.95776e+00      -3.54289e+00       1.03261e-03       8.58625e+02
  1.500      2.89161e+02       4.91509e+00      -3.45058e+00       1.02243e-03       8.48510e+02
  1.600      2.88378e+02       4.99875e+00      -3.39109e+00       1.01312e-03       8.38507e+02
  1.700      2.87498e+02       5.21986e+00      -3.36466e+00       1.00423e-03       8.28606e+02
  1.800      2.86665e+02       5.57753e+00      -3.36616e+00       9.95221e-04       8.18798e+02
  1.900      2.85918e+02       6.03934e+00      -3.40152e+00       9.85984e-04       8.09082e+02
  2.000      2.85215e+02       6.55065e+00      -3.48443e+00       9.76662e-04       7.99462e+02
  2.100      2.84520e+02       7.06092e+00      -3.62443e+00       9.67384e-04       7.89940e+02
  2.200      2.83819e+02       7.53487e+00      -3.81649e+00       9.58200e-04       7.80513e+02
  2.300      2.83101e+02       7.94102e+00      -4.05230e+00       9.49144e-04       7.71179e+02
  2.400      2.82357e+02       8.26741e+00      -4.31509e+00       9.40238e-04       7.61936e+02
  2.500      2.81584e+02       8.52678e+00      -4.57743e+00       9.31490e-04       7.52779e+02
  2.600      2.80779e+02       8.73641e+00      -4.81484e+00       9.22901e-04       7.43706e+02
  2.700      2.79957e+02       8.94473e+00      -5.04065e+00       9.14421e-04       7.34717e+02
  2.800      2.79144e+02       9.21881e+00      -5.29089e+00       9.05969e-04       7.25811e+02
  2.900      2.78358e+02       9.61061e+00      -5.59326e+00       8.97485e-04       7.16989e+02
  3.000      2.77590e+02       1.00910e+01      -5.93007e+00       8.89003e-04       7.08253e+02
  3.100      2.76819e+02       1.06043e+01      -6.26875e+00       8.80587e-04       6.99601e+02
  3.200      2.76033e+02       1.11100e+01      -6.59279e+00       8.72280e-04       6.91034e+02
  3.300      2.75242e+02       1.16206e+01      -6.94161e+00       8.64048e-04       6.82549e+02
  3.400      2.74458e+02       1.21600e+01      -7.36681e+00       8.55841e-04       6.74141e+02
  3.500      2.73694e+02       1.27339e+01      -7.89652e+00       8.47626e-04       6.65811e+02
  3.600      2.72949e+02       1.32950e+01      -8.48971e+00       8.39403e-04       6.57559e+02
  3.700      2.72225e+02       1.37859e+01      -9.09269e+00       8.31181e-04       6.49389e+02
  3.800      2.71516e+02       1.41693e+01      -9.66162e+00       8.22972e-04       6.41303e+02
  3.900      2.70813e+02       1.44728e+01      -1.01842e+01       8.14812e-04       6.33299e+02
  4.000      2.70101e+02       1.47365e+01      -1.06544e+01       8.06734e-04       6.25372e+02
  4.100      2.69371e+02       1.49955e+01      -1.10694e+01       7.98764e-04       6.17521e+02
  4.200      2.68631e+02       1.52608e+01      -1.14407e+01       7.90883e-04       6.09747e+02
  4.300      2.67890e+02       1.55364e+01      -1.17840e+01       7.83061e-04       6.02051e+02
  4.400      2.67159e+02       1.58264e+01      -1.21141e+01       7.75269e-04       5.94435e+02
  4.500      2.66446e+02       1.61354e+01      -1.24387e+01       7.67489e-04       5.86898e+02
  4.600      2.65751e+02       1.64681e+01      -1.27610e+01       7.59712e-04       5.79437e+02
  4.700      2.65080e+02       1.68291e+01      -1.30847e+01       7.51927e-04       5.72050e+02
  4.800      2.64430e+02       1.72143e+01      -1.34116e+01       7.44138e-04       5.64736e+02
  4.900      2.63794e+02       1.76082e+01      -1.37423e+01       7.36368e-04       5.57496e+02
  5.000      2.63166e+02       1.79944e+01      -1.40768e+01       7.28639e-04       5.50332e+02
  5.100      2.62539e+02       1.83582e+01      -1.44146e+01       7.20973e-04       5.43244e+02
  5.200      2.61909e+02       1.86905e+01      -1.47505e+01       7.13381e-04       5.36233e+02
  5.300      2.61270e+02       1.89844e+01      -1.50784e+01       7.05873e-04       5.29296e+02
  5.400      2.60620e+02       1.92328e+01      -1.53920e+01       6.98459e-04       5.22434e+02
  5.500      2.59956e+02       1.94345e+01      -1.56843e+01       6.91143e-04       5.15644e+02
  5.600      2.59276e+02       1.95962e+01      -1.59472e+01       6.83929e-04       5.08927e+02
  5.700      2.58578e+02       1.97251e+01      -1.61726e+01       6.76817e-04       5.02279e+02
  5.800      2.57863e+02       1.98283e+01      -1.63531e+01       6.69807e-04       4.95702e+02
  5.900      2.57131e+02       1.99125e+01      -1.64878e+01       6.62892e-04       4.89192e+02
  6.000      2.56389e+02       1.99835e+01      -1.65799e+01       6.56054e-04       4.82748e+02
  6.100      2.55641e+02       2.00474e+01      -1.66332e+01       6.49279e-04       4.76369e+02
  6.200      2.54893e+02       2.01104e+01      -1.66518e+01       6.42553e-04       4.70054e+02
  6.300      2.54145e+02       2.01803e+01      -1.66446e+01       6.35873e-04       4.63803e+02
  6.400      2.53397e+02       2.02658e+01      -1.66225e+01       6.29242e-04       4.57617e+02
  6.500      2.52651e+02       2.03753e+01      -1.65966e+01       6.22662e-04       4.51496e+02
  6.600      2.51904e+02       2.05163e+01      -1.65770e+01       6.16133e-04       4.45442e+02
  6.700      2.51159e+02       2.06856e+01      -1.65653e+01       6.09653e-04       4.39454e+02
  6.800      2.50416e+02       2.08749e+01      -1.65590e+01       6.03218e-04       4.33529e+02
  6.900      2.49678e+02       2.10757e+01      -1.65555e+01       5.96820e-04       4.27668e+02
  7.000      2.48946e+02       2.12796e+01      -1.65520e+01       5.90458e-04       4.21868e+02
  7.100      2.48218e+02       2.14808e+01      -1.65447e+01       5.84134e-04       4.16128e+02
  7.200      2.47488e+02       2.16760e+01      -1.65289e+01       5.77861e-04       4.10449e+02
  7.300      2.46752e+02       2.18616e+01      -1.64996e+01       5.71652e-04       4.04831e+02
  7.400      2.46004e+02       2.20342e+01      -1.64521e+01       5.65518e-04       3.99273e+02
  7.500      2.45241e+02       2.21918e+01      -1.63835e+01       5.59468e-04       3.93776e+02
  7.600      2.44462e+02       2.23362e+01      -1.62967e+01       5.53498e-04       3.88338e+02
  7.700      2.43670e+02       2.24694e+01      -1.61957e+01       5.47604e-04       3.82958e+02
  7.800      2.42865e+02       2.25940e+01      -1.60843e+01       5.41783e-04       3.77635e+02
  7.900      2.42048e+02       2.27122e+01      -1.59664e+01       5.36031e-04       3.72368e+02
  8.000      2.41221e+02       2.28305e+01      -1.58479e+01       5.30341e-04       3.67158e+02
  8.100      2.40390e+02       2.29588e+01      -1.57363e+01       5.24702e-04       3.62003e+02
  8.200      2.39559e+02       2.31073e+01      -1.56392e+01       5.19104e-04       3.56902e+02
  8.300      2.38732e+02       2.32863e+01      -1.55645e+01       5.13538e-04       3.51856e+02
  8.400      2.37913e+02       2.35053e+01      -1.55193e+01       5.07994e-04       3.46864e+02
  8.500      2.37109e+02       2.37663e+01      -1.55082e+01       5.02460e-04       3.41926e+02
  8.600      2.36327e+02       2.40657e+01      -1.55330e+01       4.96923e-04       3.37042e+02
  8.700      2.35574e+02       2.43999e+01      -1.55958e+01       4.91370e-04       3.32213e+02
  8.800      2.34856e+02       2.47652e+01      -1.56986e+01       4.85789e-04       3.27439e+02
  8.900      2.34181e+02       2.51579e+01      -1.58430e+01       4.80168e-04       3.22721e+02
  9.000      2.33547e+02       2.55730e+01      -1.60225e+01       4.74515e-04       3.18057e+02
  9.100      2.32942e+02       2.60043e+01      -1.62223e+01       4.68855e-04       3.13449e+02
  9.200      2.32354e+02       2.64453e+01      -1.64271e+01       4.63212e-04       3.08896e+02
  9.300      2.31772e+02       2.68897e+01      -1.66217e+01       4.57612e-04       3.04397e+02
  9.400      2.31183e+02       2.73312e+01      -1.67907e+01       4.52078e-04       2.99952e+02
  9.500      2.30579e+02       2.77654e+01      -1.69221e+01       4.46627e-04       2.95561e+02
  9.600      2.29961e+02       2.81956e+01      -1.70161e+01       4.41256e-04       2.91224e+02
  9.700      2.29330e+02       2.86270e+01      -1.70758e+01       4.35960e-04       2.86938e+02
  9.800      2.28689e+02       2.90649e+01      -1.71046e+01       4.30731e-04       2.82705e+02
  9.900      2.28042e+02       2.95144e+01      -1.71054e+01       4.25563e-04       2.78523e+02
 10.000      2.27392e+02       2.99807e+01      -1.70817e+01       4.20450e-04       2.74392e+02
 10.100      2.26739e+02       3.04646e+01      -1.70354e+01       4.15389e-04       2.70310e+02
 10.200      2.26082e+02       3.09555e+01      -1.69664e+01       4.10380e-04       2.66278e+02
 10.300      2.25421e+02       3.14410e+01      -1.68739e+01       4.05426e-04       2.62294e+02
 10.400      2.24754e+02       3.19087e+01      -1.67572e+01       4.00529e-04       2.58359e+02
 10.500      2.24079e+02       3.23461e+01      -1.66154e+01       3.95690e-04       2.54471e+02
 10.600      2.23394e+02       3.27407e+01      -1.64480e+01       3.90912e-04       2.50630e+02
 10.700      2.22698e+02       3.30823e+01      -1.62549e+01       3.86196e-04       2.46835e+02
 10.800      2.21992e+02       3.33739e+01      -1.60402e+01       3.81541e-04       2.43086e+02
 10.900      2.21275e+02       3.36241e+01      -1.58099e+01       3.76946e-04       2.39383e+02
 11.000      2.20548e+02       3.38414e+01      -1.55702e+01       3.72408e-04       2.35724e+02
 11.100      2.19811e+02       3.40344e+01      -1.53269e+01       3.67926e-04       2.32109e+02
 11.200      2.19065e+02       3.42118e+01      -1.50861e+01       3.63498e-04       2.28537e+02
 11.300      2.18310e+02       3.43820e+01      -1.48538e+01       3.59123e-04       2.25008e+02
 11.400      2.17546e+02       3.45522e+01      -1.46346e+01       3.54799e-04       2.21521e+02
 11.500      2.16776e+02       3.47235e+01      -1.44275e+01       3.50522e-04       2.18076e+02
 11.600      2.16000e+02       3.48952e+01      -1.42300e+01       3.46291e-04       2.14673e+02
 11.700      2.15221e+02       3.50669e+01      -1.40398e+01       3.42102e-04       2.11311e+02
 11.800      2.14440e+02       3.52382e+01      -1.38544e+01       3.37953e-04       2.07991e+02
 11.900      2.13659e+02       3.54085e+01      -1.36714e+01       3.33841e-04       2.04711e+02
 12.000      2.12879e+02       3.55774e+01      -1.34884e+01       3.29762e-04       2.01472e+02
 12.100      2.12102e+02       3.57441e+01      -1.33031e+01       3.25715e-04       1.98273e+02
 12.200      2.11334e+02       3.59061e+01      -1.31148e+01       3.21692e-04       1.95115e+02
 12.300      2.10583e+02       3.60587e+01      -1.29246e+01       3.17679e-04       1.91997e+02
 12.400      2.09858e+02       3.61973e+01      -1.27335e+01       3.13666e-04       1.88918e+02
 12.500      2.09167e+02       3.63172e+01      -1.25426e+01       3.09639e-04       1.85879e+02
 12.600      2.08519e+02       3.64137e+01      -1.23529e+01       3.05589e-04       1.82880e+02
 12.700      2.07924e+02       3.64821e+01      -1.21655e+01       3.01504e-04       1.79920e+02
 12.800      2.07388e+02       3.65179e+01      -1.19814e+01       2.97374e-04       1.76998e+02
 12.900      2.06922e+02       3.65164e+01      -1.18016e+01       2.93191e-04       1.74116e+02
 13.000      2.06527e+02       3.64767e+01      -1.16284e+01       2.88953e-04       1.71272e+02
 13.100      2.06201e+02       3.64047e+01      -1.14656e+01       2.84674e-04       1.68469e+02
 13.200      2.05935e+02       3.63063e+01      -1.13173e+01       2.80367e-04       1.65706e+02
 13.300      2.05726e+02       3.61879e+01      -1.11877e+01       2.76044e-04       1.62986e+02
 13.400      2.05566e+02       3.60556e+01      -1.10808e+01       2.71720e-04       1.60308e+02
 13.500      2.05450e+02       3.59156e+01      -1.10007e+01       2.67405e-04       1.57674e+02
 13.600      2.05373e+02       3.57741e+01      -1.09516e+01       2.63112e-04       1.55083e+02
 13.700      2.05327e+02       3.56374e+01      -1.09375e+01       2.58850e-04       1.52538e+02
 13.800      2.05309e+02       3.55116e+01      -1.09626e+01       2.54630e-04       1.50038e+02
 13.900      2.05311e+02       3.54011e+01      -1.10287e+01       2.50461e-04       1.47582e+02
 14.000      2.05330e+02       3.53025e+01      -1.11289e+01       2.46346e-04       1.45171e+02
 14.100      2.05361e+02       3.52105e+01      -1.12538e+01       2.42286e-04       1.42800e+02
 14.200      2.05401e+02       3.51197e+01      -1.13940e+01       2.38285e-04       1.40469e+02
 14.300      2.05445e+02       3.50247e+01      -1.15400e+01       2.34343e-04       1.38175e+02
 14.400      2.05489e+02       3.49201e+01      -1.16826e+01       2.30461e-04       1.35915e+02
 14.500      2.05529e+02       3.48006e+01      -1.18123e+01       2.26643e-04       1.33690e+02
 14.600      2.05562e+02       3.46608e+01      -1.19198e+01       2.22888e-04       1.31496e+02
 14.700      2.05583e+02       3.44953e+01      -1.19957e+01       2.19198e-04       1.29332e+02
 14.800      2.05587e+02       3.42988e+01      -1.20305e+01       2.15574e-04       1.27196e+02
 14.900      2.05572e+02       3.40659e+01      -1.20150e+01       2.12017e-04       1.25088e+02
 15.000      2.05533e+02       3.37925e+01      -1.19420e+01       2.08527e-04       1.23006e+02
 15.100      2.05473e+02       3.34804e+01      -1.18147e+01       2.05103e-04       1.20951e+02
 15.200      2.05395e+02       3.31329e+01      -1.16395e+01       2.01744e-04       1.18925e+02
 15.300      2.05300e+02       3.27534e+01      -1.14225e+01       1.98448e-04       1.16928e+02
 15.400      2.05194e+02       3.23453e+01      -1.11700e+01       1.95214e-04       1.14963e+02
 15.500      2.05077e+02       3.19121e+01      -1.08882e+01       1.92040e-04       1.13030e+02
 15.600      2.04954e+02       3.14571e+01      -1.05832e+01       1.88926e-04       1.11130e+02
 15.700      2.04827e+02       3.09837e+01      -1.02614e+01       1.85869e-04       1.09264e+02
 15.800      2.04700e+02       3.04953e+01      -9.92889e+00       1.82868e-04       1.07433e+02
 15.900      2.04575e+02       2.99953e+01      -9.59198e+00       1.79923e-04       1.05638e+02
 16.000      2.04455e+02       2.94871e+01      -9.25684e+00       1.77032e-04       1.03880e+02
 16.100      2.04343e+02       2.89741e+01      -8.92971e+00       1.74193e-04       1.02158e+02
 16.200      2.04242e+02       2.84596e+01      -8.61681e+00       1.71406e-04       1.00474e+02
 16.300      2.04155e+02       2.79470e+01      -8.32392e+00       1.68669e-04       9.88274e+01
 16.400      2.04083e+02       2.74376e+01      -8.05248e+00       1.65980e-04       9.72178e+01
 16.500      2.04025e+02       2.69317e+01      -7.80151e+00       1.63338e-04       9.56430e+01
 16.600      2.03981e+02       2.64297e+01      -7.56995e+00       1.60741e-04       9.41014e+01
 16.700      2.03949e+02       2.59319e+01      -7.35679e+00       1.58186e-04       9.25914e+01
 16.800      2.03931e+02       2.54387e+01      -7.16099e+00       1.55671e-04       9.11113e+01
 16.900      2.03924e+02       2.49505e+01      -6.98151e+00       1.53196e-04       8.96597e+01
 17.000      2.03929e+02       2.44675e+01      -6.81733e+00       1.50758e-04       8.82351e+01
 17.100      2.03946e+02       2.39902e+01      -6.66741e+00       1.48355e-04       8.68361e+01
 17.200      2.03973e+02       2.35189e+01      -6.53072e+00       1.45987e-04       8.54615e+01
 17.300      2.04011e+02       2.30540e+01      -6.40623e+00       1.43652e-04       8.41101e+01
 17.400      2.04058e+02       2.25957e+01      -6.29290e+00       1.41349e-04       8.27805e+01
 17.500      2.04115e+02       2.21444e+01      -6.18971e+00       1.39075e-04       8.14717e+01
 17.600      2.04180e+02       2.17005e+01      -6.09561e+00       1.36831e-04       8.01827e+01
 17.700      2.04254e+02       2.12644e+01      -6.00959e+00       1.34615e-04       7.89124e+01
 17.800      2.04336e+02       2.08364e+01      -5.93061e+00       1.32425e-04       7.76598e+01
 17.900      2.04425e+02       2.04167e+01      -5.85763e+00       1.30261e-04       7.64241e+01
 18.000      2.04521e+02       2.00059e+01      -5.78962e+00       1.28122e-04       7.52043e+01
 18.100      2.04623e+02       1.96042e+01      -5.72555e+00       1.26007e-04       7.39996e+01
 18.200      2.04731e+02       1.92120e+01      -5.66439e+00       1.23914e-04       7.28093e+01
 18.300      2.04845e+02       1.88296e+01      -5.60511e+00       1.21844e-04       7.16325e+01
 18.400      2.04963e+02       1.84573e+01      -5.54667e+00       1.19795e-04       7.04687e+01
 18.500      2.05087e+02       1.80956e+01      -5.48807e+00       1.17766e-04       6.93172e+01
 18.600      2.05214e+02       1.77449e+01      -5.42889e+00       1.15759e-04       6.81780e+01
 18.700      2.05345e+02       1.74055e+01      -5.36912e+00       1.13774e-04       6.70519e+01
 18.800      2.05481e+02       1.70781e+01      -5.30876e+00       1.11813e-04       6.59394e+01
 18.900      2.05621e+02       1.67630e+01      -5.24784e+00       1.09875e-04       6.48410e+01
 19.000      2.05765e+02       1.64607e+01      -5.18636e+00       1.07964e-04       6.37573e+01
 19.100      2.05912e+02       1.61716e+01      -5.12433e+00       1.06078e-04       6.26886e+01
 19.200      2.06064e+02       1.58964e+01      -5.06176e+00       1.04219e-04       6.16355e+01
 19.300      2.06219e+02       1.56353e+01      -4.99867e+00       1.02388e-04       6.05983e+01
 19.400      2.06378e+02       1.53889e+01      -4.93505e+00       1.00586e-04       5.95773e+01
 19.500      2.06541e+02       1.51577e+01      -4.87093e+00       9.88118e-05       5.85729e+01
 19.600      2.06707e+02       1.49421e+01      -4.80632e+00       9.70676e-05       5.75853e+01
 19.700      2.06877e+02       1.47426e+01      -4.74122e+00       9.53533e-05       5.66148e+01
 19.800      2.07050e+02       1.45596e+01      -4.67565e+00       9.36694e-05       5.56616e+01
 19.900      2.07227e+02       1.43937e+01      -4.60961e+00       9.20161e-05       5.47258e+01
 20.000      2.07407e+02       1.42452e+01      -4.54311e+00       9.03937e-05       5.38077e+01
 20.100      2.07591e+02       1.41147e+01      -4.47618e+00       8.88027e-05       5.29073e+01
 20.200      2.07777e+02       1.40026e+01      -4.40881e+00       8.72429e-05       5.20248e+01
 20.300      2.07967e+02       1.39094e+01      -4.34102e+00       8.57149e-05       5.11603e+01
