# Data Source: NASA GEOS5 Near-Real-Time
# Model Time = 2010-11-27 18:00:00
# Location = [  39.7393, -104.9900 ]
# Fields = [ Z(km), T(K), U(m/s), V(m/s), R(g/cm3), P(mbar) ]
# Ground Height = 1.589
  0.000      2.92579e+02       2.65644e+00       1.17726e+00       1.20197e-03       1.00930e+03
  0.100      2.91935e+02       2.61042e+00       1.19085e+00       1.19053e-03       9.97487e+02
  0.200      2.91286e+02       2.56908e+00       1.20395e+00       1.17921e-03       9.85807e+02
  0.300      2.90617e+02       2.55437e+00       1.21433e+00       1.16806e-03       9.74244e+02
  0.400      2.89921e+02       2.57492e+00       1.22040e+00       1.15709e-03       9.62787e+02
  0.500      2.89237e+02       2.59570e+00       1.22286e+00       1.14617e-03       9.51443e+02
  0.600      2.88600e+02       2.58211e+00       1.22379e+00       1.13514e-03       9.40219e+02
  0.700      2.87981e+02       2.55506e+00       1.23067e+00       1.12414e-03       9.29112e+02
  0.800      2.87334e+02       2.55470e+00       1.25193e+00       1.11334e-03       9.18116e+02
  0.900      2.86651e+02       2.60806e+00       1.28224e+00       1.10276e-03       9.07226e+02
  1.000      2.85953e+02       2.73219e+00       1.30620e+00       1.09231e-03       8.96442e+02
  1.100      2.85270e+02       2.91361e+00       1.29948e+00       1.08188e-03       8.85763e+02
  1.200      2.84644e+02       3.09150e+00       1.22414e+00       1.07132e-03       8.75193e+02
  1.300      2.84094e+02       3.21014e+00       1.06206e+00       1.06057e-03       8.64732e+02
  1.400      2.83533e+02       3.25268e+00       8.84079e-01       1.04994e-03       8.54382e+02
  1.500      2.82857e+02       3.21438e+00       7.81914e-01       1.03984e-03       8.44140e+02
  1.600      2.82066e+02       3.12126e+00       8.04188e-01       1.03023e-03       8.34000e+02
  1.700      2.81253e+02       3.02474e+00       9.63938e-01       1.02076e-03       8.23955e+02
  1.800      2.80501e+02       2.96204e+00       1.26221e+00       1.01113e-03       8.13999e+02
  1.900      2.79869e+02       2.92663e+00       1.66799e+00       1.00114e-03       8.04141e+02
  2.000      2.79401e+02       2.90427e+00       2.14188e+00       9.90661e-04       7.94393e+02
  2.100      2.79059e+02       2.88484e+00       2.60226e+00       9.79843e-04       7.84756e+02
  2.200      2.78732e+02       2.86162e+00       2.93299e+00       9.69077e-04       7.75223e+02
  2.300      2.78326e+02       2.82978e+00       3.04847e+00       9.58678e-04       7.65789e+02
  2.400      2.77842e+02       2.79211e+00       2.99862e+00       9.48643e-04       7.56454e+02
  2.500      2.77299e+02       2.75365e+00       2.86948e+00       9.38893e-04       7.47217e+02
  2.600      2.76718e+02       2.73280e+00       2.72876e+00       9.29357e-04       7.38079e+02
  2.700      2.76113e+02       2.77057e+00       2.61343e+00       9.19981e-04       7.29035e+02
  2.800      2.75498e+02       2.90787e+00       2.55635e+00       9.10715e-04       7.20084e+02
  2.900      2.74887e+02       3.14498e+00       2.57022e+00       9.01511e-04       7.11224e+02
  3.000      2.74290e+02       3.44648e+00       2.65004e+00       8.92328e-04       7.02452e+02
  3.100      2.73720e+02       3.78005e+00       2.78887e+00       8.83132e-04       6.93768e+02
  3.200      2.73162e+02       4.15487e+00       2.96684e+00       8.73970e-04       6.85171e+02
  3.300      2.72590e+02       4.60339e+00       3.15686e+00       8.64930e-04       6.76663e+02
  3.400      2.71979e+02       5.15456e+00       3.33241e+00       8.56086e-04       6.68244e+02
  3.500      2.71330e+02       5.80981e+00       3.47197e+00       8.47435e-04       6.59913e+02
  3.600      2.70652e+02       6.55838e+00       3.55621e+00       8.38941e-04       6.51665e+02
  3.700      2.69954e+02       7.38799e+00       3.56921e+00       8.30569e-04       6.43499e+02
  3.800      2.69252e+02       8.27555e+00       3.52015e+00       8.22271e-04       6.35413e+02
  3.900      2.68562e+02       9.19306e+00       3.42961e+00       8.13998e-04       6.27407e+02
  4.000      2.67899e+02       1.01123e+01       3.31809e+00       8.05705e-04       6.19481e+02
  4.100      2.67267e+02       1.10027e+01       3.20446e+00       7.97382e-04       6.11636e+02
  4.200      2.66663e+02       1.18322e+01       3.10669e+00       7.89042e-04       6.03873e+02
  4.300      2.66085e+02       1.25695e+01       3.04236e+00       7.80699e-04       5.96192e+02
  4.400      2.65528e+02       1.31988e+01       3.02063e+00       7.72368e-04       5.88595e+02
  4.500      2.64985e+02       1.37201e+01       3.04214e+00       7.64070e-04       5.81080e+02
  4.600      2.64448e+02       1.41339e+01       3.10716e+00       7.55827e-04       5.73646e+02
  4.700      2.63911e+02       1.44477e+01       3.21415e+00       7.47652e-04       5.66291e+02
  4.800      2.63374e+02       1.46844e+01       3.35729e+00       7.39552e-04       5.59016e+02
  4.900      2.62835e+02       1.48695e+01       3.53014e+00       7.31529e-04       5.51820e+02
  5.000      2.62293e+02       1.50270e+01       3.72623e+00       7.23588e-04       5.44703e+02
  5.100      2.61747e+02       1.51693e+01       3.93873e+00       7.15728e-04       5.37664e+02
  5.200      2.61196e+02       1.53031e+01       4.16062e+00       7.07948e-04       5.30702e+02
  5.300      2.60641e+02       1.54347e+01       4.38488e+00       7.00248e-04       5.23814e+02
  5.400      2.60080e+02       1.55662e+01       4.60498e+00       6.92633e-04       5.17001e+02
  5.500      2.59505e+02       1.56879e+01       4.81557e+00       6.85117e-04       5.10262e+02
  5.600      2.58911e+02       1.57888e+01       5.01145e+00       6.77720e-04       5.03595e+02
  5.700      2.58288e+02       1.58581e+01       5.18736e+00       6.70457e-04       4.97001e+02
  5.800      2.57635e+02       1.58929e+01       5.33495e+00       6.63335e-04       4.90478e+02
  5.900      2.56952e+02       1.58987e+01       5.44249e+00       6.56348e-04       4.84025e+02
  6.000      2.56239e+02       1.58819e+01       5.49809e+00       6.49490e-04       4.77639e+02
  6.100      2.55499e+02       1.58488e+01       5.49045e+00       6.42754e-04       4.71320e+02
  6.200      2.54733e+02       1.58069e+01       5.41863e+00       6.36133e-04       4.65066e+02
  6.300      2.53943e+02       1.57649e+01       5.28993e+00       6.29618e-04       4.58876e+02
  6.400      2.53134e+02       1.57316e+01       5.11191e+00       6.23199e-04       4.52750e+02
  6.500      2.52307e+02       1.57156e+01       4.89231e+00       6.16868e-04       4.46687e+02
  6.600      2.51465e+02       1.57224e+01       4.64219e+00       6.10616e-04       4.40685e+02
  6.700      2.50611e+02       1.57553e+01       4.37556e+00       6.04437e-04       4.34744e+02
  6.800      2.49748e+02       1.58171e+01       4.10653e+00       5.98324e-04       4.28865e+02
  6.900      2.48878e+02       1.59109e+01       3.84919e+00       5.92268e-04       4.23045e+02
  7.000      2.48003e+02       1.60358e+01       3.61542e+00       5.86263e-04       4.17284e+02
  7.100      2.47127e+02       1.61853e+01       3.41377e+00       5.80302e-04       4.11582e+02
  7.200      2.46253e+02       1.63526e+01       3.25252e+00       5.74375e-04       4.05938e+02
  7.300      2.45384e+02       1.65306e+01       3.13991e+00       5.68478e-04       4.00352e+02
  7.400      2.44524e+02       1.67129e+01       3.08200e+00       5.62601e-04       3.94823e+02
  7.500      2.43675e+02       1.68954e+01       3.07414e+00       5.56737e-04       3.89352e+02
  7.600      2.42841e+02       1.70747e+01       3.10844e+00       5.50880e-04       3.83938e+02
  7.700      2.42027e+02       1.72475e+01       3.17701e+00       5.45023e-04       3.78582e+02
  7.800      2.41235e+02       1.74104e+01       3.27196e+00       5.39158e-04       3.73283e+02
  7.900      2.40465e+02       1.75612e+01       3.38487e+00       5.33289e-04       3.68041e+02
  8.000      2.39709e+02       1.76990e+01       3.50652e+00       5.27435e-04       3.62857e+02
  8.100      2.38958e+02       1.78233e+01       3.62760e+00       5.21617e-04       3.57730e+02
  8.200      2.38203e+02       1.79333e+01       3.73883e+00       5.15855e-04       3.52660e+02
  8.300      2.37435e+02       1.80287e+01       3.83106e+00       5.10165e-04       3.47646e+02
  8.400      2.36650e+02       1.81120e+01       3.89907e+00       5.04557e-04       3.42688e+02
  8.500      2.35850e+02       1.81896e+01       3.94191e+00       4.99025e-04       3.37785e+02
  8.600      2.35037e+02       1.82677e+01       3.95884e+00       4.93565e-04       3.32936e+02
  8.700      2.34210e+02       1.83528e+01       3.94911e+00       4.88171e-04       3.28141e+02
  8.800      2.33373e+02       1.84511e+01       3.91202e+00       4.82840e-04       3.23397e+02
  8.900      2.32528e+02       1.85692e+01       3.84949e+00       4.77564e-04       3.18705e+02
  9.000      2.31679e+02       1.87135e+01       3.76740e+00       4.72336e-04       3.14065e+02
  9.100      2.30830e+02       1.88906e+01       3.67197e+00       4.67145e-04       3.09475e+02
  9.200      2.29985e+02       1.91071e+01       3.56943e+00       4.61985e-04       3.04936e+02
  9.300      2.29149e+02       1.93695e+01       3.46600e+00       4.56844e-04       3.00447e+02
  9.400      2.28325e+02       1.96820e+01       3.36709e+00       4.51720e-04       2.96009e+02
  9.500      2.27509e+02       2.00355e+01       3.27366e+00       4.46617e-04       2.91620e+02
  9.600      2.26697e+02       2.04168e+01       3.18522e+00       4.41548e-04       2.87280e+02
  9.700      2.25881e+02       2.08124e+01       3.10123e+00       4.36523e-04       2.82989e+02
  9.800      2.25058e+02       2.12091e+01       3.02120e+00       4.31554e-04       2.78747e+02
  9.900      2.24220e+02       2.15934e+01       2.94460e+00       4.26649e-04       2.74553e+02
 10.000      2.23366e+02       2.19538e+01       2.86925e+00       4.21813e-04       2.70407e+02
 10.100      2.22503e+02       2.22843e+01       2.78811e+00       4.17031e-04       2.66309e+02
 10.200      2.21639e+02       2.25798e+01       2.69328e+00       4.12289e-04       2.62258e+02
 10.300      2.20783e+02       2.28350e+01       2.57685e+00       4.07568e-04       2.58254e+02
 10.400      2.19944e+02       2.30450e+01       2.43090e+00       4.02854e-04       2.54297e+02
 10.500      2.19130e+02       2.32045e+01       2.24753e+00       3.98132e-04       2.50387e+02
 10.600      2.18349e+02       2.33116e+01       2.02160e+00       3.93391e-04       2.46523e+02
 10.700      2.17595e+02       2.33813e+01       1.76295e+00       3.88640e-04       2.42705e+02
 10.800      2.16861e+02       2.34344e+01       1.48646e+00       3.83895e-04       2.38933e+02
 10.900      2.16139e+02       2.34918e+01       1.20704e+00       3.79172e-04       2.35207e+02
 11.000      2.15419e+02       2.35742e+01       9.39548e-01       3.74484e-04       2.31526e+02
 11.100      2.14695e+02       2.37023e+01       6.98884e-01       3.69847e-04       2.27890e+02
 11.200      2.13957e+02       2.38970e+01       4.99906e-01       3.65275e-04       2.24299e+02
 11.300      2.13203e+02       2.41689e+01       3.51206e-01       3.60770e-04       2.20753e+02
 11.400      2.12443e+02       2.45060e+01       2.47248e-01       3.56319e-04       2.17251e+02
 11.500      2.11685e+02       2.48932e+01       1.80561e-01       3.51904e-04       2.13794e+02
 11.600      2.10940e+02       2.53155e+01       1.43675e-01       3.47506e-04       2.10380e+02
 11.700      2.10220e+02       2.57577e+01       1.29117e-01       3.43111e-04       2.07009e+02
 11.800      2.09533e+02       2.62047e+01       1.29417e-01       3.38701e-04       2.03681e+02
 11.900      2.08891e+02       2.66414e+01       1.37102e-01       3.34263e-04       2.00397e+02
 12.000      2.08304e+02       2.70537e+01       1.45626e-01       3.29782e-04       1.97154e+02
 12.100      2.07778e+02       2.74327e+01       1.53785e-01       3.25253e-04       1.93955e+02
 12.200      2.07319e+02       2.77714e+01       1.62287e-01       3.20670e-04       1.90800e+02
 12.300      2.06934e+02       2.80628e+01       1.71846e-01       3.16031e-04       1.87691e+02
 12.400      2.06628e+02       2.83000e+01       1.83173e-01       3.11332e-04       1.84627e+02
 12.500      2.06408e+02       2.84760e+01       1.96981e-01       3.06571e-04       1.81610e+02
 12.600      2.06279e+02       2.85837e+01       2.13983e-01       3.01747e-04       1.78640e+02
 12.700      2.06248e+02       2.86163e+01       2.34889e-01       2.96856e-04       1.75718e+02
 12.800      2.06318e+02       2.85682e+01       2.60593e-01       2.91902e-04       1.72845e+02
 12.900      2.06482e+02       2.84462e+01       2.93536e-01       2.86903e-04       1.70020e+02
 13.000      2.06723e+02       2.82635e+01       3.36957e-01       2.81889e-04       1.67243e+02
 13.100      2.07025e+02       2.80333e+01       3.94101e-01       2.76886e-04       1.64515e+02
 13.200      2.07372e+02       2.77689e+01       4.68210e-01       2.71920e-04       1.61835e+02
 13.300      2.07748e+02       2.74834e+01       5.62530e-01       2.67013e-04       1.59203e+02
 13.400      2.08138e+02       2.71902e+01       6.80305e-01       2.62187e-04       1.56619e+02
 13.500      2.08524e+02       2.69023e+01       8.24781e-01       2.57461e-04       1.54082e+02
 13.600      2.08892e+02       2.66331e+01       9.99201e-01       2.52855e-04       1.51592e+02
 13.700      2.09226e+02       2.63957e+01       1.20673e+00       2.48384e-04       1.49149e+02
 13.800      2.09516e+02       2.61968e+01       1.44626e+00       2.44054e-04       1.46753e+02
 13.900      2.09766e+02       2.60341e+01       1.71037e+00       2.39855e-04       1.44399e+02
 14.000      2.09979e+02       2.59043e+01       1.99113e+00       2.35775e-04       1.42087e+02
 14.100      2.10157e+02       2.58042e+01       2.28060e+00       2.31806e-04       1.39814e+02
 14.200      2.10305e+02       2.57307e+01       2.57085e+00       2.27937e-04       1.37578e+02
 14.300      2.10426e+02       2.56804e+01       2.85393e+00       2.24161e-04       1.35376e+02
 14.400      2.10523e+02       2.56502e+01       3.12192e+00       2.20470e-04       1.33208e+02
 14.500      2.10600e+02       2.56369e+01       3.36688e+00       2.16854e-04       1.31071e+02
 14.600      2.10659e+02       2.56372e+01       3.58087e+00       2.13308e-04       1.28964e+02
 14.700      2.10705e+02       2.56480e+01       3.75596e+00       2.09823e-04       1.26885e+02
 14.800      2.10740e+02       2.56661e+01       3.88422e+00       2.06394e-04       1.24832e+02
 14.900      2.10767e+02       2.56885e+01       3.96041e+00       2.03017e-04       1.22805e+02
 15.000      2.10787e+02       2.57136e+01       3.98781e+00       1.99690e-04       1.20804e+02
 15.100      2.10801e+02       2.57397e+01       3.97131e+00       1.96417e-04       1.18832e+02
 15.200      2.10809e+02       2.57653e+01       3.91584e+00       1.93197e-04       1.16888e+02
 15.300      2.10811e+02       2.57889e+01       3.82630e+00       1.90032e-04       1.14975e+02
 15.400      2.10808e+02       2.58088e+01       3.70761e+00       1.86924e-04       1.13093e+02
 15.500      2.10801e+02       2.58236e+01       3.56468e+00       1.83872e-04       1.11242e+02
 15.600      2.10789e+02       2.58316e+01       3.40242e+00       1.80878e-04       1.09425e+02
 15.700      2.10774e+02       2.58313e+01       3.22575e+00       1.77942e-04       1.07641e+02
 15.800      2.10755e+02       2.58212e+01       3.03957e+00       1.75065e-04       1.05891e+02
 15.900      2.10733e+02       2.57996e+01       2.84880e+00       1.72248e-04       1.04176e+02
 16.000      2.10710e+02       2.57651e+01       2.65834e+00       1.69490e-04       1.02497e+02
 16.100      2.10684e+02       2.57160e+01       2.47313e+00       1.66792e-04       1.00853e+02
 16.200      2.10657e+02       2.56509e+01       2.29796e+00       1.64154e-04       9.92450e+01
 16.300      2.10629e+02       2.55693e+01       2.13513e+00       1.61575e-04       9.76728e+01
 16.400      2.10599e+02       2.54721e+01       1.98419e+00       1.59052e-04       9.61341e+01
 16.500      2.10569e+02       2.53601e+01       1.84458e+00       1.56582e-04       9.46275e+01
 16.600      2.10538e+02       2.52341e+01       1.71573e+00       1.54161e-04       9.31512e+01
 16.700      2.10506e+02       2.50951e+01       1.59706e+00       1.51789e-04       9.17036e+01
 16.800      2.10473e+02       2.49439e+01       1.48802e+00       1.49462e-04       9.02834e+01
 16.900      2.10439e+02       2.47813e+01       1.38801e+00       1.47177e-04       8.88890e+01
 17.000      2.10405e+02       2.46082e+01       1.29649e+00       1.44932e-04       8.75192e+01
 17.100      2.10370e+02       2.44255e+01       1.21287e+00       1.42726e-04       8.61726e+01
 17.200      2.10334e+02       2.42340e+01       1.13658e+00       1.40556e-04       8.48479e+01
 17.300      2.10298e+02       2.40346e+01       1.06706e+00       1.38420e-04       8.35442e+01
 17.400      2.10261e+02       2.38281e+01       1.00374e+00       1.36316e-04       8.22601e+01
 17.500      2.10224e+02       2.36155e+01       9.46038e-01       1.34243e-04       8.09946e+01
 17.600      2.10187e+02       2.33975e+01       8.93392e-01       1.32198e-04       7.97468e+01
 17.700      2.10149e+02       2.31751e+01       8.45230e-01       1.30181e-04       7.85157e+01
 17.800      2.10111e+02       2.29490e+01       8.00982e-01       1.28189e-04       7.73003e+01
 17.900      2.10073e+02       2.27202e+01       7.60076e-01       1.26221e-04       7.60998e+01
 18.000      2.10035e+02       2.24895e+01       7.21944e-01       1.24275e-04       7.49134e+01
 18.100      2.09997e+02       2.22577e+01       6.86014e-01       1.22352e-04       7.37403e+01
 18.200      2.09959e+02       2.20258e+01       6.51717e-01       1.20448e-04       7.25797e+01
 18.300      2.09921e+02       2.17945e+01       6.18483e-01       1.18563e-04       7.14310e+01
 18.400      2.09883e+02       2.15648e+01       5.85740e-01       1.16696e-04       7.02934e+01
 18.500      2.09846e+02       2.13375e+01       5.52979e-01       1.14846e-04       6.91666e+01
 18.600      2.09808e+02       2.11133e+01       5.20244e-01       1.13013e-04       6.80507e+01
 18.700      2.09772e+02       2.08929e+01       4.87869e-01       1.11198e-04       6.69465e+01
 18.800      2.09737e+02       2.06769e+01       4.56189e-01       1.09403e-04       6.58545e+01
 18.900      2.09703e+02       2.04660e+01       4.25540e-01       1.07627e-04       6.47753e+01
 19.000      2.09671e+02       2.02609e+01       3.96259e-01       1.05873e-04       6.37094e+01
 19.100      2.09641e+02       2.00621e+01       3.68682e-01       1.04139e-04       6.26574e+01
 19.200      2.09613e+02       1.98704e+01       3.43147e-01       1.02428e-04       6.16197e+01
 19.300      2.09588e+02       1.96864e+01       3.19989e-01       1.00740e-04       6.05967e+01
 19.400      2.09566e+02       1.95107e+01       2.99544e-01       9.90744e-05       5.95888e+01
 19.500      2.09548e+02       1.93441e+01       2.82149e-01       9.74330e-05       5.85964e+01
 19.600      2.09533e+02       1.91872e+01       2.68140e-01       9.58157e-05       5.76197e+01
 19.700      2.09522e+02       1.90406e+01       2.57853e-01       9.42231e-05       5.66590e+01
 19.800      2.09515e+02       1.89050e+01       2.51626e-01       9.26556e-05       5.57146e+01
 19.900      2.09513e+02       1.87810e+01       2.49793e-01       9.11133e-05       5.47868e+01
 20.000      2.09516e+02       1.86694e+01       2.52693e-01       8.95967e-05       5.38756e+01
 20.100      2.09525e+02       1.85707e+01       2.60660e-01       8.81059e-05       5.29812e+01
 20.200      2.09539e+02       1.84856e+01       2.74032e-01       8.66411e-05       5.21039e+01
 20.300      2.09558e+02       1.84148e+01       2.93144e-01       8.52026e-05       5.12437e+01
