# Data Source: NASA MERRA (version 2)
# Model Time = 2011-02-05 18:00:00
# Location = [  39.1026,  -84.5123 ]
# Fields = [ Z(km), T(K), U(m/s), V(m/s), R(g/cm3), P(mbar) ]
# Ground Height = 0.165
  0.000      2.76736e+02       6.78016e+00       6.18646e+00       1.26205e-03       1.00237e+03
  0.100      2.76159e+02       6.22749e+00       5.94951e+00       1.24921e-03       9.90095e+02
  0.200      2.75541e+02       6.30631e+00       6.05453e+00       1.23666e-03       9.77956e+02
  0.300      2.74833e+02       7.65158e+00       6.84583e+00       1.22460e-03       9.65930e+02
  0.400      2.74004e+02       9.64508e+00       7.99278e+00       1.21315e-03       9.54007e+02
  0.500      2.73035e+02       1.11210e+01       8.87324e+00       1.20237e-03       9.42189e+02
  0.600      2.72013e+02       1.19605e+01       9.46861e+00       1.19189e-03       9.30478e+02
  0.700      2.71081e+02       1.27154e+01       1.01409e+01       1.18107e-03       9.18877e+02
  0.800      2.70283e+02       1.36031e+01       1.09454e+01       1.16975e-03       9.07386e+02
  0.900      2.69562e+02       1.45216e+01       1.16489e+01       1.15816e-03       8.96001e+02
  1.000      2.68885e+02       1.53874e+01       1.21191e+01       1.14646e-03       8.84723e+02
  1.100      2.68249e+02       1.61624e+01       1.23886e+01       1.13467e-03       8.73557e+02
  1.200      2.67656e+02       1.68123e+01       1.25033e+01       1.12280e-03       8.62507e+02
  1.300      2.67107e+02       1.73025e+01       1.25089e+01       1.11086e-03       8.51578e+02
  1.400      2.66600e+02       1.76042e+01       1.24462e+01       1.09884e-03       8.40773e+02
  1.500      2.66121e+02       1.77234e+01       1.23246e+01       1.08684e-03       8.30090e+02
  1.600      2.65645e+02       1.76791e+01       1.21412e+01       1.07493e-03       8.19524e+02
  1.700      2.65150e+02       1.74906e+01       1.18933e+01       1.06319e-03       8.09072e+02
  1.800      2.64615e+02       1.71771e+01       1.15781e+01       1.05173e-03       7.98729e+02
  1.900      2.64027e+02       1.67623e+01       1.12022e+01       1.04056e-03       7.88493e+02
  2.000      2.63400e+02       1.62826e+01       1.07978e+01       1.02964e-03       7.78364e+02
  2.100      2.62756e+02       1.57764e+01       1.04017e+01       1.01887e-03       7.68342e+02
  2.200      2.62113e+02       1.52822e+01       1.00508e+01       1.00819e-03       7.58427e+02
  2.300      2.61493e+02       1.48385e+01       9.78173e+00       9.97512e-04       7.48619e+02
  2.400      2.60905e+02       1.44672e+01       9.61240e+00       9.86806e-04       7.38917e+02
  2.500      2.60331e+02       1.41465e+01       9.51075e+00       9.76137e-04       7.29320e+02
  2.600      2.59748e+02       1.38477e+01       9.43663e+00       9.65589e-04       7.19824e+02
  2.700      2.59135e+02       1.35418e+01       9.34990e+00       9.55238e-04       7.10426e+02
  2.800      2.58468e+02       1.32001e+01       9.21042e+00       9.45161e-04       7.01125e+02
  2.900      2.57733e+02       1.27986e+01       8.98609e+00       9.35411e-04       6.91917e+02
  3.000      2.56946e+02       1.23415e+01       8.69127e+00       9.25914e-04       6.82803e+02
  3.100      2.56140e+02       1.18428e+01       8.35697e+00       9.16558e-04       6.73783e+02
  3.200      2.55346e+02       1.13168e+01       8.01425e+00       9.07231e-04       6.64857e+02
  3.300      2.54593e+02       1.07776e+01       7.69415e+00       8.97826e-04       6.56026e+02
  3.400      2.53914e+02       1.02396e+01       7.42747e+00       8.88240e-04       6.47289e+02
  3.500      2.53322e+02       9.72083e+00       7.22925e+00       8.78431e-04       6.38648e+02
  3.600      2.52802e+02       9.24605e+00       7.08856e+00       8.68459e-04       6.30103e+02
  3.700      2.52339e+02       8.84052e+00       6.99208e+00       8.58388e-04       6.21655e+02
  3.800      2.51915e+02       8.52952e+00       6.92645e+00       8.48281e-04       6.13305e+02
  3.900      2.51515e+02       8.33836e+00       6.87835e+00       8.38201e-04       6.05053e+02
  4.000      2.51121e+02       8.29181e+00       6.83456e+00       8.28203e-04       5.96899e+02
  4.100      2.50724e+02       8.39272e+00       6.78709e+00       8.18319e-04       5.88844e+02
  4.200      2.50326e+02       8.61406e+00       6.73507e+00       8.08542e-04       5.80886e+02
  4.300      2.49930e+02       8.92667e+00       6.67816e+00       7.98865e-04       5.73024e+02
  4.400      2.49536e+02       9.30135e+00       6.61600e+00       7.89280e-04       5.65257e+02
  4.500      2.49147e+02       9.70895e+00       6.54824e+00       7.79778e-04       5.57583e+02
  4.600      2.48766e+02       1.01203e+01       6.47454e+00       7.70353e-04       5.50000e+02
  4.700      2.48394e+02       1.05110e+01       6.39686e+00       7.61000e-04       5.42509e+02
  4.800      2.48030e+02       1.08758e+01       6.32652e+00       7.51718e-04       5.35109e+02
  4.900      2.47676e+02       1.12143e+01       6.27714e+00       7.42511e-04       5.27798e+02
  5.000      2.47329e+02       1.15262e+01       6.26238e+00       7.33380e-04       5.20578e+02
  5.100      2.46990e+02       1.18109e+01       6.29586e+00       7.24327e-04       5.13448e+02
  5.200      2.46659e+02       1.20682e+01       6.39122e+00       7.15354e-04       5.06407e+02
  5.300      2.46335e+02       1.22975e+01       6.56210e+00       7.06463e-04       4.99456e+02
  5.400      2.46017e+02       1.25007e+01       6.81708e+00       6.97655e-04       4.92593e+02
  5.500      2.45707e+02       1.26870e+01       7.14873e+00       6.88927e-04       4.85816e+02
  5.600      2.45403e+02       1.28670e+01       7.54649e+00       6.80277e-04       4.79124e+02
  5.700      2.45108e+02       1.30512e+01       7.99979e+00       6.71703e-04       4.72515e+02
  5.800      2.44820e+02       1.32501e+01       8.49806e+00       6.63202e-04       4.65987e+02
  5.900      2.44540e+02       1.34745e+01       9.03073e+00       6.54773e-04       4.59538e+02
  6.000      2.44268e+02       1.37347e+01       9.58723e+00       6.46413e-04       4.53167e+02
  6.100      2.44005e+02       1.40412e+01       1.01571e+01       6.38120e-04       4.46871e+02
  6.200      2.43752e+02       1.43971e+01       1.07316e+01       6.29892e-04       4.40652e+02
  6.300      2.43512e+02       1.47986e+01       1.13038e+01       6.21726e-04       4.34512e+02
  6.400      2.43289e+02       1.52417e+01       1.18671e+01       6.13621e-04       4.28455e+02
  6.500      2.43086e+02       1.57222e+01       1.24146e+01       6.05574e-04       4.22483e+02
  6.600      2.42905e+02       1.62360e+01       1.29394e+01       5.97583e-04       4.16598e+02
  6.700      2.42751e+02       1.67791e+01       1.34349e+01       5.89645e-04       4.10802e+02
  6.800      2.42625e+02       1.73472e+01       1.38942e+01       5.81759e-04       4.05098e+02
  6.900      2.42531e+02       1.79364e+01       1.43106e+01       5.73924e-04       3.99488e+02
  7.000      2.42470e+02       1.85426e+01       1.46808e+01       5.66138e-04       3.93970e+02
  7.100      2.42435e+02       1.91618e+01       1.50124e+01       5.58409e-04       3.88535e+02
  7.200      2.42419e+02       1.97902e+01       1.53154e+01       5.50742e-04       3.83175e+02
  7.300      2.42413e+02       2.04240e+01       1.55993e+01       5.43143e-04       3.77878e+02
  7.400      2.42409e+02       2.10593e+01       1.58740e+01       5.35619e-04       3.72638e+02
  7.500      2.42399e+02       2.16922e+01       1.61492e+01       5.28175e-04       3.67444e+02
  7.600      2.42376e+02       2.23189e+01       1.64346e+01       5.20815e-04       3.62289e+02
  7.700      2.42331e+02       2.29355e+01       1.67400e+01       5.13546e-04       3.57166e+02
  7.800      2.42257e+02       2.35382e+01       1.70752e+01       5.06370e-04       3.52068e+02
  7.900      2.42145e+02       2.41232e+01       1.74492e+01       4.99294e-04       3.46987e+02
  8.000      2.41996e+02       2.46883e+01       1.78612e+01       4.92331e-04       3.41937e+02
  8.100      2.41813e+02       2.52326e+01       1.83026e+01       4.85501e-04       3.36940e+02
  8.200      2.41603e+02       2.57552e+01       1.87646e+01       4.78823e-04       3.32017e+02
  8.300      2.41371e+02       2.62553e+01       1.92384e+01       4.72316e-04       3.27189e+02
  8.400      2.41121e+02       2.67318e+01       1.97150e+01       4.65996e-04       3.22477e+02
  8.500      2.40858e+02       2.71839e+01       2.01859e+01       4.59879e-04       3.17897e+02
  8.600      2.40588e+02       2.76107e+01       2.06420e+01       4.53980e-04       3.13467e+02
  8.700      2.40315e+02       2.80113e+01       2.10746e+01       4.48313e-04       3.09204e+02
  8.800      2.40046e+02       2.83848e+01       2.14749e+01       4.42891e-04       3.05122e+02
  8.900      2.39784e+02       2.87303e+01       2.18340e+01       4.37728e-04       3.01236e+02
  9.000      2.39535e+02       2.90472e+01       2.21438e+01       4.32833e-04       2.97557e+02
  9.100      2.39299e+02       2.93379e+01       2.24039e+01       4.28194e-04       2.94078e+02
  9.200      2.39074e+02       2.96067e+01       2.26189e+01       4.23783e-04       2.90776e+02
  9.300      2.38860e+02       2.98582e+01       2.27932e+01       4.19577e-04       2.87631e+02
  9.400      2.38654e+02       3.00966e+01       2.29315e+01       4.15549e-04       2.84625e+02
  9.500      2.38454e+02       3.03265e+01       2.30384e+01       4.11678e-04       2.81737e+02
  9.600      2.38259e+02       3.05523e+01       2.31185e+01       4.07940e-04       2.78951e+02
  9.700      2.38067e+02       3.07784e+01       2.31764e+01       4.04315e-04       2.76249e+02
  9.800      2.37877e+02       3.10091e+01       2.32167e+01       4.00780e-04       2.73615e+02
  9.900      2.37686e+02       3.12490e+01       2.32439e+01       3.97317e-04       2.71033e+02
 10.000      2.37492e+02       3.15024e+01       2.32628e+01       3.93906e-04       2.68487e+02
 10.100      2.37295e+02       3.17737e+01       2.32778e+01       3.90528e-04       2.65964e+02
 10.200      2.37092e+02       3.20674e+01       2.32936e+01       3.87165e-04       2.63448e+02
 10.300      2.36882e+02       3.23880e+01       2.33147e+01       3.83799e-04       2.60927e+02
 10.400      2.36663e+02       3.27397e+01       2.33458e+01       3.80414e-04       2.58386e+02
 10.500      2.36433e+02       3.31271e+01       2.33915e+01       3.76994e-04       2.55814e+02
 10.600      2.36191e+02       3.35545e+01       2.34563e+01       3.73522e-04       2.53198e+02
 10.700      2.35934e+02       3.40264e+01       2.35449e+01       3.69985e-04       2.50528e+02
 10.800      2.35661e+02       3.45461e+01       2.36611e+01       3.66368e-04       2.47792e+02
 10.900      2.35373e+02       3.51090e+01       2.38036e+01       3.62670e-04       2.44991e+02
 11.000      2.35069e+02       3.57070e+01       2.39687e+01       3.58892e-04       2.42126e+02
 11.100      2.34750e+02       3.63319e+01       2.41527e+01       3.55037e-04       2.39200e+02
 11.200      2.34416e+02       3.69755e+01       2.43521e+01       3.51106e-04       2.36215e+02
 11.300      2.34069e+02       3.76299e+01       2.45630e+01       3.47101e-04       2.33175e+02
 11.400      2.33709e+02       3.82867e+01       2.47819e+01       3.43026e-04       2.30082e+02
 11.500      2.33335e+02       3.89379e+01       2.50050e+01       3.38881e-04       2.26939e+02
 11.600      2.32949e+02       3.95754e+01       2.52288e+01       3.34670e-04       2.23748e+02
 11.700      2.32551e+02       4.01910e+01       2.54494e+01       3.30395e-04       2.20513e+02
 11.800      2.32142e+02       4.07765e+01       2.56633e+01       3.26058e-04       2.17236e+02
 11.900      2.31722e+02       4.13239e+01       2.58668e+01       3.21663e-04       2.13920e+02
 12.000      2.31292e+02       4.18250e+01       2.60562e+01       3.17212e-04       2.10568e+02
 12.100      2.30852e+02       4.22716e+01       2.62278e+01       3.12708e-04       2.07183e+02
 12.200      2.30402e+02       4.26557e+01       2.63781e+01       3.08153e-04       2.03768e+02
 12.300      2.29944e+02       4.29690e+01       2.65032e+01       3.03551e-04       2.00325e+02
 12.400      2.29477e+02       4.32052e+01       2.66000e+01       2.98907e-04       1.96860e+02
 12.500      2.29002e+02       4.33665e+01       2.66681e+01       2.94233e-04       1.93381e+02
 12.600      2.28520e+02       4.34580e+01       2.67079e+01       2.89546e-04       1.89899e+02
 12.700      2.28031e+02       4.34851e+01       2.67198e+01       2.84859e-04       1.86426e+02
 12.800      2.27534e+02       4.34530e+01       2.67043e+01       2.80188e-04       1.82969e+02
 12.900      2.27031e+02       4.33667e+01       2.66618e+01       2.75544e-04       1.79539e+02
 13.000      2.26522e+02       4.32317e+01       2.65926e+01       2.70941e-04       1.76143e+02
 13.100      2.26007e+02       4.30529e+01       2.64973e+01       2.66389e-04       1.72791e+02
 13.200      2.25486e+02       4.28358e+01       2.63762e+01       2.61901e-04       1.69488e+02
 13.300      2.24960e+02       4.25854e+01       2.62298e+01       2.57484e-04       1.66241e+02
 13.400      2.24429e+02       4.23071e+01       2.60586e+01       2.53150e-04       1.63057e+02
 13.500      2.23894e+02       4.20059e+01       2.58628e+01       2.48906e-04       1.59941e+02
 13.600      2.23355e+02       4.16872e+01       2.56431e+01       2.44761e-04       1.56899e+02
 13.700      2.22812e+02       4.13560e+01       2.53997e+01       2.40722e-04       1.53934e+02
 13.800      2.22265e+02       4.10177e+01       2.51331e+01       2.36795e-04       1.51052e+02
 13.900      2.21716e+02       4.06772e+01       2.48439e+01       2.32986e-04       1.48255e+02
 14.000      2.21164e+02       4.03364e+01       2.45327e+01       2.29294e-04       1.45542e+02
 14.100      2.20611e+02       3.99948e+01       2.42010e+01       2.25712e-04       1.42910e+02
 14.200      2.20057e+02       3.96521e+01       2.38497e+01       2.22234e-04       1.40355e+02
 14.300      2.19504e+02       3.93077e+01       2.34803e+01       2.18855e-04       1.37873e+02
 14.400      2.18953e+02       3.89613e+01       2.30937e+01       2.15567e-04       1.35461e+02
 14.500      2.18404e+02       3.86123e+01       2.26913e+01       2.12366e-04       1.33115e+02
 14.600      2.17859e+02       3.82605e+01       2.22742e+01       2.09247e-04       1.30833e+02
 14.700      2.17319e+02       3.79052e+01       2.18436e+01       2.06205e-04       1.28611e+02
 14.800      2.16784e+02       3.75461e+01       2.14008e+01       2.03235e-04       1.26447e+02
 14.900      2.16256e+02       3.71827e+01       2.09469e+01       2.00332e-04       1.24337e+02
 15.000      2.15736e+02       3.68146e+01       2.04830e+01       1.97493e-04       1.22280e+02
 15.100      2.15224e+02       3.64414e+01       2.00105e+01       1.94712e-04       1.20272e+02
 15.200      2.14721e+02       3.60625e+01       1.95305e+01       1.91987e-04       1.18312e+02
 15.300      2.14230e+02       3.56777e+01       1.90441e+01       1.89313e-04       1.16397e+02
 15.400      2.13750e+02       3.52863e+01       1.85527e+01       1.86686e-04       1.14525e+02
 15.500      2.13282e+02       3.48880e+01       1.80573e+01       1.84104e-04       1.12694e+02
 15.600      2.12828e+02       3.44824e+01       1.75592e+01       1.81563e-04       1.10902e+02
 15.700      2.12389e+02       3.40689e+01       1.70596e+01       1.79060e-04       1.09147e+02
 15.800      2.11965e+02       3.36472e+01       1.65597e+01       1.76591e-04       1.07427e+02
 15.900      2.11558e+02       3.32168e+01       1.60606e+01       1.74154e-04       1.05741e+02
 16.000      2.11168e+02       3.27773e+01       1.55636e+01       1.71747e-04       1.04088e+02
 16.100      2.10797e+02       3.23282e+01       1.50699e+01       1.69366e-04       1.02464e+02
 16.200      2.10445e+02       3.18691e+01       1.45806e+01       1.67009e-04       1.00870e+02
 16.300      2.10114e+02       3.13996e+01       1.40969e+01       1.64673e-04       9.93028e+01
 16.400      2.09804e+02       3.09195e+01       1.36196e+01       1.62358e-04       9.77623e+01
 16.500      2.09515e+02       3.04294e+01       1.31487e+01       1.60063e-04       9.62471e+01
 16.600      2.09246e+02       2.99296e+01       1.26845e+01       1.57787e-04       9.47565e+01
 16.700      2.08996e+02       2.94206e+01       1.22270e+01       1.55529e-04       9.32896e+01
 16.800      2.08767e+02       2.89029e+01       1.17763e+01       1.53290e-04       9.18455e+01
 16.900      2.08556e+02       2.83768e+01       1.13326e+01       1.51069e-04       9.04234e+01
 17.000      2.08365e+02       2.78427e+01       1.08961e+01       1.48865e-04       8.90226e+01
 17.100      2.08192e+02       2.73012e+01       1.04667e+01       1.46679e-04       8.76423e+01
 17.200      2.08038e+02       2.67525e+01       1.00447e+01       1.44509e-04       8.62819e+01
 17.300      2.07902e+02       2.61973e+01       9.63024e+00       1.42356e-04       8.49406e+01
 17.400      2.07783e+02       2.56359e+01       9.22332e+00       1.40219e-04       8.36178e+01
 17.500      2.07681e+02       2.50686e+01       8.82412e+00       1.38098e-04       8.23130e+01
 17.600      2.07597e+02       2.44961e+01       8.43276e+00       1.35994e-04       8.10254e+01
 17.700      2.07529e+02       2.39186e+01       8.04937e+00       1.33904e-04       7.97546e+01
 17.800      2.07478e+02       2.33367e+01       7.67407e+00       1.31831e-04       7.85001e+01
 17.900      2.07443e+02       2.27507e+01       7.30699e+00       1.29772e-04       7.72612e+01
 18.000      2.07423e+02       2.21610e+01       6.94824e+00       1.27729e-04       7.60375e+01
 18.100      2.07419e+02       2.15682e+01       6.59795e+00       1.25701e-04       7.48287e+01
 18.200      2.07429e+02       2.09727e+01       6.25625e+00       1.23688e-04       7.36341e+01
 18.300      2.07455e+02       2.03748e+01       5.92325e+00       1.21690e-04       7.24534e+01
 18.400      2.07494e+02       1.97750e+01       5.59909e+00       1.19706e-04       7.12862e+01
 18.500      2.07548e+02       1.91738e+01       5.28387e+00       1.17738e-04       7.01321e+01
 18.600      2.07616e+02       1.85715e+01       4.97770e+00       1.15784e-04       6.89908e+01
 18.700      2.07696e+02       1.79688e+01       4.68046e+00       1.13847e-04       6.78627e+01
 18.800      2.07788e+02       1.73664e+01       4.39196e+00       1.11928e-04       6.67483e+01
 18.900      2.07891e+02       1.67648e+01       4.11201e+00       1.10028e-04       6.56480e+01
 19.000      2.08004e+02       1.61647e+01       3.84042e+00       1.08150e-04       6.45622e+01
 19.100      2.08125e+02       1.55668e+01       3.57702e+00       1.06294e-04       6.34914e+01
 19.200      2.08255e+02       1.49717e+01       3.32162e+00       1.04462e-04       6.24359e+01
 19.300      2.08391e+02       1.43801e+01       3.07402e+00       1.02655e-04       6.13960e+01
 19.400      2.08533e+02       1.37925e+01       2.83405e+00       1.00874e-04       6.03719e+01
 19.500      2.08680e+02       1.32097e+01       2.60151e+00       9.91198e-05       5.93641e+01
 19.600      2.08831e+02       1.26322e+01       2.37622e+00       9.73938e-05       5.83726e+01
 19.700      2.08985e+02       1.20608e+01       2.15799e+00       9.56967e-05       5.73977e+01
 19.800      2.09141e+02       1.14961e+01       1.94664e+00       9.40291e-05       5.64396e+01
 19.900      2.09298e+02       1.09386e+01       1.74198e+00       9.23917e-05       5.54984e+01
 20.000      2.09455e+02       1.03891e+01       1.54383e+00       9.07852e-05       5.45742e+01
 20.100      2.09611e+02       9.84820e+00       1.35199e+00       8.92099e-05       5.36671e+01
 20.200      2.09764e+02       9.31654e+00       1.16629e+00       8.76664e-05       5.27772e+01
 20.300      2.09915e+02       8.79477e+00       9.86528e-01       8.61551e-05       5.19047e+01
