# Data Source: NASA MERRA (version 2)
# Model Time = 2011-11-23 18:00:00
# Location = [  39.1026,  -84.5123 ]
# Fields = [ Z(km), T(K), U(m/s), V(m/s), R(g/cm3), P(mbar) ]
# Ground Height = 0.165
  0.000      2.83673e+02       4.11811e+00      -3.47688e+00       1.25643e-03       1.02291e+03
  0.100      2.82487e+02       4.55351e+00      -3.68340e+00       1.24648e-03       1.01057e+03
  0.200      2.81383e+02       4.98525e+00      -3.94624e+00       1.23632e-03       9.98416e+02
  0.300      2.80266e+02       5.41754e+00      -4.20060e+00       1.22631e-03       9.86402e+02
  0.400      2.79044e+02       5.85459e+00      -4.38162e+00       1.21680e-03       9.74481e+02
  0.500      2.77718e+02       6.27519e+00      -4.48100e+00       1.20773e-03       9.62621e+02
  0.600      2.76625e+02       6.56878e+00      -4.68869e+00       1.19767e-03       9.50846e+02
  0.700      2.76107e+02       6.60649e+00      -5.18809e+00       1.18520e-03       9.39186e+02
  0.800      2.76164e+02       6.26551e+00      -5.91383e+00       1.17042e-03       9.27668e+02
  0.900      2.76672e+02       5.46141e+00      -6.72389e+00       1.15398e-03       9.16313e+02
  1.000      2.77336e+02       4.41051e+00      -7.48024e+00       1.13715e-03       9.05118e+02
  1.100      2.77792e+02       3.46689e+00      -8.05225e+00       1.12142e-03       8.94066e+02
  1.200      2.77903e+02       2.78760e+00      -8.41399e+00       1.10728e-03       8.83148e+02
  1.300      2.77733e+02       2.35057e+00      -8.63420e+00       1.09442e-03       8.72358e+02
  1.400      2.77359e+02       2.12729e+00      -8.78505e+00       1.08250e-03       8.61692e+02
  1.500      2.76852e+02       2.08922e+00      -8.93870e+00       1.07121e-03       8.51145e+02
  1.600      2.76283e+02       2.20583e+00      -9.15644e+00       1.06026e-03       8.40714e+02
  1.700      2.75685e+02       2.43547e+00      -9.43900e+00       1.04952e-03       8.30394e+02
  1.800      2.75085e+02       2.73264e+00      -9.76624e+00       1.03887e-03       8.20184e+02
  1.900      2.74504e+02       3.05184e+00      -1.01179e+01       1.02824e-03       8.10078e+02
  2.000      2.73970e+02       3.34754e+00      -1.04739e+01       1.01753e-03       8.00076e+02
  2.100      2.73499e+02       3.58091e+00      -1.08193e+01       1.00666e-03       7.90174e+02
  2.200      2.73094e+02       3.74031e+00      -1.11608e+01       9.95657e-04       7.80376e+02
  2.300      2.72749e+02       3.82110e+00      -1.15107e+01       9.84537e-04       7.70684e+02
  2.400      2.72459e+02       3.81860e+00      -1.18814e+01       9.73330e-04       7.61103e+02
  2.500      2.72220e+02       3.72817e+00      -1.22852e+01       9.62065e-04       7.51634e+02
  2.600      2.72024e+02       3.54801e+00      -1.27302e+01       9.50777e-04       7.42281e+02
  2.700      2.71846e+02       3.29591e+00      -1.31964e+01       9.39556e-04       7.33040e+02
  2.800      2.71652e+02       2.99778e+00      -1.36520e+01       9.28515e-04       7.23907e+02
  2.900      2.71407e+02       2.67959e+00      -1.40651e+01       9.17760e-04       7.14879e+02
  3.000      2.71079e+02       2.36727e+00      -1.44040e+01       9.07394e-04       7.05950e+02
  3.100      2.70634e+02       2.08657e+00      -1.46370e+01       8.97514e-04       6.97117e+02
  3.200      2.70061e+02       1.85030e+00      -1.47521e+01       8.88141e-04       6.88376e+02
  3.300      2.69384e+02       1.65093e+00      -1.47673e+01       8.79184e-04       6.79726e+02
  3.400      2.68630e+02       1.47914e+00      -1.47035e+01       8.70545e-04       6.71163e+02
  3.500      2.67826e+02       1.32561e+00      -1.45814e+01       8.62129e-04       6.62685e+02
  3.600      2.66999e+02       1.18101e+00      -1.44221e+01       8.53844e-04       6.54290e+02
  3.700      2.66176e+02       1.03612e+00      -1.42460e+01       8.45602e-04       6.45976e+02
  3.800      2.65368e+02       8.83797e-01      -1.40670e+01       8.37363e-04       6.37741e+02
  3.900      2.64573e+02       7.19108e-01      -1.38921e+01       8.29139e-04       6.29586e+02
  4.000      2.63788e+02       5.37217e-01      -1.37279e+01       8.20941e-04       6.21512e+02
  4.100      2.63009e+02       3.33286e-01      -1.35812e+01       8.12781e-04       6.13517e+02
  4.200      2.62234e+02       1.02476e-01      -1.34587e+01       8.04670e-04       6.05603e+02
  4.300      2.61458e+02      -1.60009e-01      -1.33668e+01       7.96619e-04       5.97769e+02
  4.400      2.60678e+02      -4.55505e-01      -1.33075e+01       7.88637e-04       5.90016e+02
  4.500      2.59892e+02      -7.79250e-01      -1.32746e+01       7.80731e-04       5.82340e+02
  4.600      2.59098e+02      -1.12586e+00      -1.32607e+01       7.72907e-04       5.74743e+02
  4.700      2.58293e+02      -1.48997e+00      -1.32587e+01       7.65169e-04       5.67221e+02
  4.800      2.57474e+02      -1.86618e+00      -1.32615e+01       7.57524e-04       5.59774e+02
  4.900      2.56640e+02      -2.24911e+00      -1.32617e+01       7.49977e-04       5.52400e+02
  5.000      2.55787e+02      -2.63257e+00      -1.32528e+01       7.42533e-04       5.45099e+02
  5.100      2.54918e+02      -3.00103e+00      -1.32335e+01       7.35182e-04       5.37871e+02
  5.200      2.54038e+02      -3.33303e+00      -1.32061e+01       7.27912e-04       5.30713e+02
  5.300      2.53152e+02      -3.60705e+00      -1.31730e+01       7.20707e-04       5.23628e+02
  5.400      2.52265e+02      -3.80151e+00      -1.31366e+01       7.13554e-04       5.16614e+02
  5.500      2.51381e+02      -3.89489e+00      -1.30991e+01       7.06440e-04       5.09671e+02
  5.600      2.50506e+02      -3.86563e+00      -1.30630e+01       6.99349e-04       5.02799e+02
  5.700      2.49644e+02      -3.69374e+00      -1.30307e+01       6.92272e-04       4.95998e+02
  5.800      2.48795e+02      -3.38349e+00      -1.30050e+01       6.85207e-04       4.89267e+02
  5.900      2.47956e+02      -2.95835e+00      -1.29895e+01       6.78165e-04       4.82604e+02
  6.000      2.47122e+02      -2.44228e+00      -1.29875e+01       6.71155e-04       4.76009e+02
  6.100      2.46289e+02      -1.85926e+00      -1.30024e+01       6.64187e-04       4.69480e+02
  6.200      2.45454e+02      -1.23328e+00      -1.30376e+01       6.57270e-04       4.63015e+02
  6.300      2.44612e+02      -5.88315e-01      -1.30965e+01       6.50414e-04       4.56614e+02
  6.400      2.43760e+02       5.16535e-02      -1.31826e+01       6.43627e-04       4.50276e+02
  6.500      2.42895e+02       6.66623e-01      -1.32973e+01       6.36915e-04       4.44000e+02
  6.600      2.42019e+02       1.25473e+00      -1.34339e+01       6.30278e-04       4.37788e+02
  6.700      2.41135e+02       1.81928e+00      -1.35831e+01       6.23709e-04       4.31642e+02
  6.800      2.40245e+02       2.36357e+00      -1.37357e+01       6.17205e-04       4.25565e+02
  6.900      2.39354e+02       2.89091e+00      -1.38824e+01       6.10761e-04       4.19560e+02
  7.000      2.38464e+02       3.40461e+00      -1.40141e+01       6.04373e-04       4.13628e+02
  7.100      2.37579e+02       3.90797e+00      -1.41214e+01       5.98035e-04       4.07771e+02
  7.200      2.36701e+02       4.40430e+00      -1.41952e+01       5.91745e-04       4.01991e+02
  7.300      2.35834e+02       4.89703e+00      -1.42273e+01       5.85496e-04       3.96289e+02
  7.400      2.34982e+02       5.39132e+00      -1.42219e+01       5.79271e-04       3.90660e+02
  7.500      2.34150e+02       5.89343e+00      -1.41918e+01       5.73048e-04       3.85093e+02
  7.600      2.33341e+02       6.40966e+00      -1.41497e+01       5.66801e-04       3.79580e+02
  7.700      2.32560e+02       6.94632e+00      -1.41086e+01       5.60510e-04       3.74111e+02
  7.800      2.31813e+02       7.50970e+00      -1.40813e+01       5.54152e-04       3.68678e+02
  7.900      2.31102e+02       8.10610e+00      -1.40806e+01       5.47707e-04       3.63274e+02
  8.000      2.30434e+02       8.74182e+00      -1.41194e+01       5.41156e-04       3.57891e+02
  8.100      2.29811e+02       9.42316e+00      -1.42105e+01       5.34481e-04       3.52521e+02
  8.200      2.29240e+02       1.01559e+01      -1.43660e+01       5.27666e-04       3.47161e+02
  8.300      2.28718e+02       1.09355e+01      -1.45840e+01       5.20736e-04       3.41822e+02
  8.400      2.28242e+02       1.17478e+01      -1.48492e+01       5.13749e-04       3.36534e+02
  8.500      2.27808e+02       1.25784e+01      -1.51458e+01       5.06760e-04       3.31325e+02
  8.600      2.27411e+02       1.34129e+01      -1.54583e+01       4.99824e-04       3.26220e+02
  8.700      2.27046e+02       1.42367e+01      -1.57709e+01       4.92991e-04       3.21244e+02
  8.800      2.26709e+02       1.50354e+01      -1.60679e+01       4.86311e-04       3.16420e+02
  8.900      2.26395e+02       1.57945e+01      -1.63337e+01       4.79828e-04       3.11770e+02
  9.000      2.26100e+02       1.64995e+01      -1.65525e+01       4.73586e-04       3.07313e+02
  9.100      2.25819e+02       1.71361e+01      -1.67086e+01       4.67626e-04       3.03068e+02
  9.200      2.25547e+02       1.76897e+01      -1.67865e+01       4.61988e-04       2.99054e+02
  9.300      2.25283e+02       1.81529e+01      -1.67779e+01       4.56683e-04       2.95273e+02
  9.400      2.25025e+02       1.85320e+01      -1.66898e+01       4.51678e-04       2.91703e+02
  9.500      2.24774e+02       1.88348e+01      -1.65306e+01       4.46935e-04       2.88319e+02
  9.600      2.24531e+02       1.90694e+01      -1.63091e+01       4.42418e-04       2.85096e+02
  9.700      2.24296e+02       1.92435e+01      -1.60338e+01       4.38092e-04       2.82013e+02
  9.800      2.24069e+02       1.93652e+01      -1.57133e+01       4.33924e-04       2.79047e+02
  9.900      2.23852e+02       1.94422e+01      -1.53562e+01       4.29881e-04       2.76179e+02
 10.000      2.23644e+02       1.94826e+01      -1.49711e+01       4.25933e-04       2.73388e+02
 10.100      2.23445e+02       1.94942e+01      -1.45666e+01       4.22050e-04       2.70656e+02
 10.200      2.23257e+02       1.94850e+01      -1.41513e+01       4.18204e-04       2.67963e+02
 10.300      2.23080e+02       1.94628e+01      -1.37338e+01       4.14366e-04       2.65293e+02
 10.400      2.22914e+02       1.94356e+01      -1.33227e+01       4.10509e-04       2.62629e+02
 10.500      2.22760e+02       1.94113e+01      -1.29266e+01       4.06610e-04       2.59954e+02
 10.600      2.22617e+02       1.93978e+01      -1.25541e+01       4.02642e-04       2.57252e+02
 10.700      2.22487e+02       1.94029e+01      -1.22139e+01       3.98582e-04       2.54510e+02
 10.800      2.22370e+02       1.94347e+01      -1.19144e+01       3.94408e-04       2.51712e+02
 10.900      2.22266e+02       1.95008e+01      -1.16641e+01       3.90099e-04       2.48845e+02
 11.000      2.22175e+02       1.96040e+01      -1.14650e+01       3.85647e-04       2.45905e+02
 11.100      2.22094e+02       1.97401e+01      -1.13107e+01       3.81063e-04       2.42892e+02
 11.200      2.22020e+02       1.99047e+01      -1.11940e+01       3.76356e-04       2.39812e+02
 11.300      2.21950e+02       2.00932e+01      -1.11080e+01       3.71537e-04       2.36668e+02
 11.400      2.21883e+02       2.03012e+01      -1.10457e+01       3.66617e-04       2.33464e+02
 11.500      2.21816e+02       2.05240e+01      -1.10000e+01       3.61605e-04       2.30202e+02
 11.600      2.21746e+02       2.07573e+01      -1.09639e+01       3.56512e-04       2.26888e+02
 11.700      2.21670e+02       2.09966e+01      -1.09303e+01       3.51347e-04       2.23524e+02
 11.800      2.21585e+02       2.12372e+01      -1.08923e+01       3.46119e-04       2.20115e+02
 11.900      2.21490e+02       2.14747e+01      -1.08428e+01       3.40839e-04       2.16663e+02
 12.000      2.21382e+02       2.17047e+01      -1.07747e+01       3.35514e-04       2.13174e+02
 12.100      2.21257e+02       2.19225e+01      -1.06812e+01       3.30154e-04       2.09650e+02
 12.200      2.21114e+02       2.21237e+01      -1.05551e+01       3.24766e-04       2.06096e+02
 12.300      2.20950e+02       2.23037e+01      -1.03893e+01       3.19360e-04       2.02514e+02
 12.400      2.20762e+02       2.24582e+01      -1.01771e+01       3.13942e-04       1.98910e+02
 12.500      2.20549e+02       2.25851e+01      -9.91575e+00       3.08524e-04       1.95288e+02
 12.600      2.20315e+02       2.26865e+01      -9.61047e+00       3.03117e-04       1.91663e+02
 12.700      2.20062e+02       2.27649e+01      -9.26702e+00       2.97736e-04       1.88044e+02
 12.800      2.19794e+02       2.28229e+01      -8.89122e+00       2.92393e-04       1.84444e+02
 12.900      2.19513e+02       2.28631e+01      -8.48886e+00       2.87098e-04       1.80872e+02
 13.000      2.19222e+02       2.28879e+01      -8.06574e+00       2.81863e-04       1.77339e+02
 13.100      2.18924e+02       2.28999e+01      -7.62767e+00       2.76697e-04       1.73852e+02
 13.200      2.18623e+02       2.29016e+01      -7.18047e+00       2.71610e-04       1.70421e+02
 13.300      2.18321e+02       2.28956e+01      -6.72991e+00       2.66609e-04       1.67053e+02
 13.400      2.18022e+02       2.28844e+01      -6.28182e+00       2.61703e-04       1.63754e+02
 13.500      2.17728e+02       2.28705e+01      -5.84200e+00       2.56898e-04       1.60530e+02
 13.600      2.17443e+02       2.28565e+01      -5.41624e+00       2.52201e-04       1.57389e+02
 13.700      2.17169e+02       2.28449e+01      -5.01035e+00       2.47617e-04       1.54333e+02
 13.800      2.16909e+02       2.28382e+01      -4.63014e+00       2.43152e-04       1.51369e+02
 13.900      2.16667e+02       2.28389e+01      -4.28123e+00       2.38811e-04       1.48500e+02
 14.000      2.16443e+02       2.28476e+01      -3.96554e+00       2.34591e-04       1.45726e+02
 14.100      2.16237e+02       2.28635e+01      -3.68157e+00       2.30489e-04       1.43041e+02
 14.200      2.16047e+02       2.28855e+01      -3.42767e+00       2.26500e-04       1.40442e+02
 14.300      2.15872e+02       2.29127e+01      -3.20219e+00       2.22618e-04       1.37924e+02
 14.400      2.15713e+02       2.29439e+01      -3.00348e+00       2.18839e-04       1.35482e+02
 14.500      2.15567e+02       2.29782e+01      -2.82991e+00       2.15159e-04       1.33114e+02
 14.600      2.15434e+02       2.30146e+01      -2.67983e+00       2.11573e-04       1.30815e+02
 14.700      2.15313e+02       2.30521e+01      -2.55159e+00       2.08078e-04       1.28581e+02
 14.800      2.15202e+02       2.30896e+01      -2.44355e+00       2.04670e-04       1.26411e+02
 14.900      2.15102e+02       2.31262e+01      -2.35407e+00       2.01345e-04       1.24299e+02
 15.000      2.15011e+02       2.31609e+01      -2.28149e+00       1.98100e-04       1.22244e+02
 15.100      2.14928e+02       2.31926e+01      -2.22418e+00       1.94931e-04       1.20242e+02
 15.200      2.14852e+02       2.32203e+01      -2.18048e+00       1.91835e-04       1.18290e+02
 15.300      2.14782e+02       2.32430e+01      -2.14876e+00       1.88809e-04       1.16387e+02
 15.400      2.14718e+02       2.32598e+01      -2.12736e+00       1.85851e-04       1.14529e+02
 15.500      2.14658e+02       2.32696e+01      -2.11465e+00       1.82957e-04       1.12714e+02
 15.600      2.14601e+02       2.32714e+01      -2.10898e+00       1.80125e-04       1.10940e+02
 15.700      2.14547e+02       2.32641e+01      -2.10871e+00       1.77352e-04       1.09204e+02
 15.800      2.14495e+02       2.32469e+01      -2.11218e+00       1.74636e-04       1.07506e+02
 15.900      2.14443e+02       2.32186e+01      -2.11775e+00       1.71974e-04       1.05842e+02
 16.000      2.14391e+02       2.31783e+01      -2.12378e+00       1.69364e-04       1.04210e+02
 16.100      2.14338e+02       2.31250e+01      -2.12863e+00       1.66804e-04       1.02610e+02
 16.200      2.14282e+02       2.30576e+01      -2.13065e+00       1.64293e-04       1.01038e+02
 16.300      2.14224e+02       2.29751e+01      -2.12820e+00       1.61827e-04       9.94946e+01
 16.400      2.14161e+02       2.28771e+01      -2.12027e+00       1.59405e-04       9.79772e+01
 16.500      2.14096e+02       2.27636e+01      -2.10681e+00       1.57025e-04       9.64850e+01
 16.600      2.14028e+02       2.26350e+01      -2.08789e+00       1.54686e-04       9.50172e+01
 16.700      2.13956e+02       2.24914e+01      -2.06352e+00       1.52385e-04       9.35728e+01
 16.800      2.13883e+02       2.23331e+01      -2.03377e+00       1.50122e-04       9.21512e+01
 16.900      2.13807e+02       2.21603e+01      -1.99868e+00       1.47894e-04       9.07513e+01
 17.000      2.13729e+02       2.19733e+01      -1.95828e+00       1.45700e-04       8.93726e+01
 17.100      2.13650e+02       2.17723e+01      -1.91262e+00       1.43538e-04       8.80142e+01
 17.200      2.13570e+02       2.15575e+01      -1.86175e+00       1.41408e-04       8.66754e+01
 17.300      2.13488e+02       2.13293e+01      -1.80572e+00       1.39308e-04       8.53556e+01
 17.400      2.13406e+02       2.10877e+01      -1.74455e+00       1.37236e-04       8.40540e+01
 17.500      2.13324e+02       2.08331e+01      -1.67830e+00       1.35192e-04       8.27701e+01
 17.600      2.13241e+02       2.05656e+01      -1.60702e+00       1.33175e-04       8.15033e+01
 17.700      2.13159e+02       2.02856e+01      -1.53074e+00       1.31183e-04       8.02530e+01
 17.800      2.13077e+02       1.99933e+01      -1.44951e+00       1.29214e-04       7.90186e+01
 17.900      2.12996e+02       1.96889e+01      -1.36338e+00       1.27270e-04       7.77997e+01
 18.000      2.12916e+02       1.93726e+01      -1.27238e+00       1.25347e-04       7.65957e+01
 18.100      2.12837e+02       1.90447e+01      -1.17656e+00       1.23446e-04       7.54061e+01
 18.200      2.12761e+02       1.87054e+01      -1.07597e+00       1.21565e-04       7.42306e+01
 18.300      2.12686e+02       1.83549e+01      -9.70656e-01       1.19705e-04       7.30686e+01
 18.400      2.12613e+02       1.79936e+01      -8.60648e-01       1.17863e-04       7.19198e+01
 18.500      2.12543e+02       1.76215e+01      -7.45998e-01       1.16039e-04       7.07837e+01
 18.600      2.12476e+02       1.72391e+01      -6.26751e-01       1.14233e-04       6.96601e+01
 18.700      2.12412e+02       1.68466e+01      -5.03121e-01       1.12445e-04       6.85488e+01
 18.800      2.12351e+02       1.64450e+01      -3.75604e-01       1.10675e-04       6.74502e+01
 18.900      2.12292e+02       1.60352e+01      -2.44717e-01       1.08923e-04       6.63648e+01
 19.000      2.12237e+02       1.56179e+01      -1.10982e-01       1.07192e-04       6.52928e+01
 19.100      2.12185e+02       1.51940e+01       2.50795e-02       1.05481e-04       6.42347e+01
 19.200      2.12136e+02       1.47645e+01       1.62947e-01       1.03791e-04       6.31908e+01
 19.300      2.12089e+02       1.43301e+01       3.02096e-01       1.02122e-04       6.21613e+01
 19.400      2.12045e+02       1.38917e+01       4.42012e-01       1.00476e-04       6.11465e+01
 19.500      2.12005e+02       1.34502e+01       5.82171e-01       9.88517e-05       6.01466e+01
 19.600      2.11966e+02       1.30065e+01       7.22052e-01       9.72508e-05       5.91619e+01
 19.700      2.11931e+02       1.25614e+01       8.61134e-01       9.56733e-05       5.81925e+01
 19.800      2.11898e+02       1.21158e+01       9.98895e-01       9.41195e-05       5.72386e+01
 19.900      2.11868e+02       1.16706e+01       1.13482e+00       9.25898e-05       5.63003e+01
 20.000      2.11840e+02       1.12265e+01       1.26838e+00       9.10845e-05       5.53777e+01
 20.100      2.11816e+02       1.07845e+01       1.39906e+00       8.96037e-05       5.44710e+01
 20.200      2.11793e+02       1.03454e+01       1.52633e+00       8.81477e-05       5.35802e+01
 20.300      2.11773e+02       9.91016e+00       1.64968e+00       8.67166e-05       5.27054e+01
