# Data Source: NASA MERRA (version 2)
# Model Time = 2011-03-08 18:00:00
# Location = [  39.1026,  -84.5123 ]
# Fields = [ Z(km), T(K), U(m/s), V(m/s), R(g/cm3), P(mbar) ]
# Ground Height = 0.165
  0.000      2.84882e+02      -1.55252e+00       1.15275e+00       1.25259e-03       1.02414e+03
  0.100      2.84007e+02      -1.62695e+00       1.47009e+00       1.24138e-03       1.01185e+03
  0.200      2.83130e+02      -1.73621e+00       1.75601e+00       1.23030e-03       9.99725e+02
  0.300      2.82254e+02      -1.84465e+00       2.04266e+00       1.21934e-03       9.87748e+02
  0.400      2.81379e+02      -1.91664e+00       2.36220e+00       1.20845e-03       9.75896e+02
  0.500      2.80526e+02      -1.90546e+00       2.75327e+00       1.19754e-03       9.64151e+02
  0.600      2.79823e+02      -1.70857e+00       3.28729e+00       1.18605e-03       9.52508e+02
  0.700      2.79399e+02      -1.22753e+00       4.01771e+00       1.17346e-03       9.40967e+02
  0.800      2.79166e+02      -5.32115e-01       4.77778e+00       1.16018e-03       9.29542e+02
  0.900      2.78942e+02       2.30454e-01       5.31087e+00       1.14701e-03       9.18252e+02
  1.000      2.78645e+02       9.35293e-01       5.56258e+00       1.13428e-03       9.07096e+02
  1.100      2.78276e+02       1.47628e+00       5.63451e+00       1.12197e-03       8.96063e+02
  1.200      2.77842e+02       1.80768e+00       5.61391e+00       1.11003e-03       8.85144e+02
  1.300      2.77358e+02       1.97071e+00       5.56132e+00       1.09839e-03       8.74338e+02
  1.400      2.76841e+02       2.01343e+00       5.53518e+00       1.08699e-03       8.63645e+02
  1.500      2.76306e+02       1.98388e+00       5.59393e+00       1.07575e-03       8.53064e+02
  1.600      2.75768e+02       1.92908e+00       5.79018e+00       1.06461e-03       8.42594e+02
  1.700      2.75226e+02       1.88568e+00       6.11814e+00       1.05360e-03       8.32234e+02
  1.800      2.74670e+02       1.88435e+00       6.53831e+00       1.04272e-03       8.21981e+02
  1.900      2.74089e+02       1.95569e+00       7.01083e+00       1.03203e-03       8.11832e+02
  2.000      2.73472e+02       2.13028e+00       7.49579e+00       1.02156e-03       8.01784e+02
  2.100      2.72813e+02       2.43420e+00       7.95694e+00       1.01132e-03       7.91835e+02
  2.200      2.72118e+02       2.86218e+00       8.38314e+00       1.00129e-03       7.81985e+02
  2.300      2.71402e+02       3.39578e+00       8.77383e+00       9.91411e-04       7.72232e+02
  2.400      2.70679e+02       4.01649e+00       9.12847e+00       9.81628e-04       7.62578e+02
  2.500      2.69965e+02       4.70581e+00       9.44654e+00       9.71890e-04       7.53021e+02
  2.600      2.69273e+02       5.44604e+00       9.72680e+00       9.62148e-04       7.43560e+02
  2.700      2.68609e+02       6.22845e+00       9.95997e+00       9.52379e-04       7.34196e+02
  2.800      2.67976e+02       7.04981e+00       1.01318e+01       9.42580e-04       7.24929e+02
  2.900      2.67374e+02       7.90699e+00       1.02281e+01       9.32746e-04       7.15756e+02
  3.000      2.66808e+02       8.79686e+00       1.02344e+01       9.22874e-04       7.06680e+02
  3.100      2.66277e+02       9.71621e+00       1.01365e+01       9.12961e-04       6.97698e+02
  3.200      2.65782e+02       1.06513e+01       9.92873e+00       9.03009e-04       6.88811e+02
  3.300      2.65322e+02       1.15686e+01       9.62114e+00       8.93032e-04       6.80020e+02
  3.400      2.64892e+02       1.24320e+01       9.22574e+00       8.83046e-04       6.71327e+02
  3.500      2.64490e+02       1.32059e+01       8.75450e+00       8.73067e-04       6.62732e+02
  3.600      2.64112e+02       1.38542e+01       8.21942e+00       8.63108e-04       6.54238e+02
  3.700      2.63756e+02       1.43429e+01       7.63285e+00       8.53184e-04       6.45844e+02
  3.800      2.63415e+02       1.46806e+01       7.01647e+00       8.43318e-04       6.37550e+02
  3.900      2.63080e+02       1.49189e+01       6.40130e+00       8.33540e-04       6.29355e+02
  4.000      2.62739e+02       1.51112e+01       5.81877e+00       8.23880e-04       6.21257e+02
  4.100      2.62384e+02       1.53111e+01       5.30035e+00       8.14368e-04       6.13253e+02
  4.200      2.62003e+02       1.55720e+01       4.87745e+00       8.05030e-04       6.05342e+02
  4.300      2.61588e+02       1.59471e+01       4.58116e+00       7.95893e-04       5.97523e+02
  4.400      2.61133e+02       1.64616e+01       4.41802e+00       7.86966e-04       5.89793e+02
  4.500      2.60641e+02       1.70965e+01       4.35490e+00       7.78234e-04       5.82149e+02
  4.600      2.60116e+02       1.78286e+01       4.35512e+00       7.69680e-04       5.74590e+02
  4.700      2.59561e+02       1.86346e+01       4.38197e+00       7.61287e-04       5.67113e+02
  4.800      2.58980e+02       1.94912e+01       4.39875e+00       7.53041e-04       5.59716e+02
  4.900      2.58378e+02       2.03753e+01       4.36874e+00       7.44926e-04       5.52396e+02
  5.000      2.57757e+02       2.12642e+01       4.25819e+00       7.36927e-04       5.45152e+02
  5.100      2.57122e+02       2.21410e+01       4.06704e+00       7.29033e-04       5.37982e+02
  5.200      2.56474e+02       2.29927e+01       3.81677e+00       7.21235e-04       5.30888e+02
  5.300      2.55819e+02       2.38065e+01       3.52918e+00       7.13524e-04       5.23870e+02
  5.400      2.55159e+02       2.45693e+01       3.22612e+00       7.05890e-04       5.16928e+02
  5.500      2.54497e+02       2.52683e+01       2.92940e+00       6.98327e-04       5.10062e+02
  5.600      2.53837e+02       2.58904e+01       2.66084e+00       6.90824e-04       5.03273e+02
  5.700      2.53182e+02       2.64233e+01       2.44159e+00       6.83375e-04       4.96562e+02
  5.800      2.52530e+02       2.68654e+01       2.27826e+00       6.75982e-04       4.89926e+02
  5.900      2.51877e+02       2.72258e+01       2.16344e+00       6.68656e-04       4.83363e+02
  6.000      2.51217e+02       2.75139e+01       2.08911e+00       6.61408e-04       4.76870e+02
  6.100      2.50544e+02       2.77393e+01       2.04730e+00       6.54249e-04       4.70445e+02
  6.200      2.49853e+02       2.79114e+01       2.03000e+00       6.47191e-04       4.64086e+02
  6.300      2.49138e+02       2.80397e+01       2.02923e+00       6.40242e-04       4.57790e+02
  6.400      2.48394e+02       2.81337e+01       2.03698e+00       6.33413e-04       4.51554e+02
  6.500      2.47616e+02       2.82024e+01       2.04528e+00       6.26713e-04       4.45378e+02
  6.600      2.46806e+02       2.82521e+01       2.04619e+00       6.20137e-04       4.39263e+02
  6.700      2.45968e+02       2.82876e+01       2.03180e+00       6.13676e-04       4.33212e+02
  6.800      2.45109e+02       2.83133e+01       1.99422e+00       6.07320e-04       4.27226e+02
  6.900      2.44232e+02       2.83341e+01       1.92553e+00       6.01060e-04       4.21310e+02
  7.000      2.43343e+02       2.83545e+01       1.81785e+00       5.94887e-04       4.15465e+02
  7.100      2.42447e+02       2.83794e+01       1.66326e+00       5.88791e-04       4.09694e+02
  7.200      2.41549e+02       2.84132e+01       1.45386e+00       5.82764e-04       4.03999e+02
  7.300      2.40655e+02       2.84607e+01       1.18183e+00       5.76797e-04       3.98381e+02
  7.400      2.39766e+02       2.85265e+01       8.46009e-01       5.70880e-04       3.92839e+02
  7.500      2.38881e+02       2.86152e+01       4.56831e-01       5.65003e-04       3.87360e+02
  7.600      2.38000e+02       2.87310e+01       2.59097e-02       5.59153e-04       3.81935e+02
  7.700      2.37119e+02       2.88787e+01      -4.35144e-01       5.53321e-04       3.76553e+02
  7.800      2.36238e+02       2.90625e+01      -9.14724e-01       5.47496e-04       3.71204e+02
  7.900      2.35354e+02       2.92871e+01      -1.40121e+00       5.41670e-04       3.65880e+02
  8.000      2.34467e+02       2.95569e+01      -1.88301e+00       5.35832e-04       3.60571e+02
  8.100      2.33573e+02       2.98763e+01      -2.34850e+00       5.29975e-04       3.55271e+02
  8.200      2.32671e+02       3.02499e+01      -2.78607e+00       5.24090e-04       3.49970e+02
  8.300      2.31762e+02       3.06813e+01      -3.18547e+00       5.18178e-04       3.44670e+02
  8.400      2.30850e+02       3.11706e+01      -3.54181e+00       5.12263e-04       3.39394e+02
  8.500      2.29940e+02       3.17172e+01      -3.85151e+00       5.06377e-04       3.34173e+02
  8.600      2.29040e+02       3.23205e+01      -4.11098e+00       5.00550e-04       3.29034e+02
  8.700      2.28155e+02       3.29798e+01      -4.31665e+00       4.94810e-04       3.24004e+02
  8.800      2.27291e+02       3.36944e+01      -4.46492e+00       4.89183e-04       3.19107e+02
  8.900      2.26455e+02       3.44637e+01      -4.55223e+00       4.83695e-04       3.14366e+02
  9.000      2.25653e+02       3.52871e+01      -4.57498e+00       4.78369e-04       3.09803e+02
  9.100      2.24891e+02       3.61639e+01      -4.52960e+00       4.73227e-04       3.05438e+02
  9.200      2.24175e+02       3.70934e+01      -4.41251e+00       4.68292e-04       3.01290e+02
  9.300      2.23511e+02       3.80744e+01      -4.22073e+00       4.63580e-04       2.97375e+02
  9.400      2.22898e+02       3.90984e+01      -3.95808e+00       4.59080e-04       2.93681e+02
  9.500      2.22333e+02       4.01522e+01      -3.63263e+00       4.54764e-04       2.90183e+02
  9.600      2.21813e+02       4.12229e+01      -3.25254e+00       4.50602e-04       2.86854e+02
  9.700      2.21332e+02       4.22974e+01      -2.82596e+00       4.46569e-04       2.83671e+02
  9.800      2.20889e+02       4.33625e+01      -2.36102e+00       4.42638e-04       2.80611e+02
  9.900      2.20478e+02       4.44051e+01      -1.86589e+00       4.38785e-04       2.77651e+02
 10.000      2.20097e+02       4.54122e+01      -1.34869e+00       4.34985e-04       2.74771e+02
 10.100      2.19741e+02       4.63707e+01      -8.17574e-01       4.31216e-04       2.71949e+02
 10.200      2.19407e+02       4.72674e+01      -2.80703e-01       4.27455e-04       2.69167e+02
 10.300      2.19090e+02       4.80893e+01       2.53791e-01       4.23682e-04       2.66407e+02
 10.400      2.18788e+02       4.88233e+01       7.77752e-01       4.19875e-04       2.63649e+02
 10.500      2.18496e+02       4.94563e+01       1.28304e+00       4.16015e-04       2.60876e+02
 10.600      2.18211e+02       4.99752e+01       1.76151e+00       4.12083e-04       2.58073e+02
 10.700      2.17929e+02       5.03669e+01       2.20501e+00       4.08061e-04       2.55224e+02
 10.800      2.17646e+02       5.06183e+01       2.60539e+00       4.03931e-04       2.52313e+02
 10.900      2.17358e+02       5.07163e+01       2.95454e+00       3.99679e-04       2.49327e+02
 11.000      2.17064e+02       5.06556e+01       3.24868e+00       3.95293e-04       2.46257e+02
 11.100      2.16767e+02       5.04470e+01       3.49309e+00       3.90772e-04       2.43108e+02
 11.200      2.16471e+02       5.01030e+01       3.69420e+00       3.86118e-04       2.39884e+02
 11.300      2.16179e+02       4.96364e+01       3.85844e+00       3.81331e-04       2.36590e+02
 11.400      2.15895e+02       4.90599e+01       3.99226e+00       3.76414e-04       2.33233e+02
 11.500      2.15622e+02       4.83861e+01       4.10206e+00       3.71368e-04       2.29815e+02
 11.600      2.15365e+02       4.76279e+01       4.19430e+00       3.66195e-04       2.26344e+02
 11.700      2.15126e+02       4.67979e+01       4.27539e+00       3.60898e-04       2.22823e+02
 11.800      2.14910e+02       4.59088e+01       4.35176e+00       3.55481e-04       2.19258e+02
 11.900      2.14720e+02       4.49734e+01       4.42986e+00       3.49946e-04       2.15653e+02
 12.000      2.14559e+02       4.40042e+01       4.51610e+00       3.44297e-04       2.12013e+02
 12.100      2.14433e+02       4.30141e+01       4.61692e+00       3.38537e-04       2.08343e+02
 12.200      2.14343e+02       4.20157e+01       4.73874e+00       3.32672e-04       2.04648e+02
 12.300      2.14294e+02       4.10217e+01       4.88801e+00       3.26706e-04       2.00931e+02
 12.400      2.14288e+02       4.00442e+01       5.07030e+00       3.20645e-04       1.97199e+02
 12.500      2.14324e+02       3.90885e+01       5.28391e+00       3.14515e-04       1.93462e+02
 12.600      2.14396e+02       3.81570e+01       5.52333e+00       3.08348e-04       1.89731e+02
 12.700      2.14498e+02       3.72519e+01       5.78306e+00       3.02172e-04       1.86020e+02
 12.800      2.14626e+02       3.63753e+01       6.05759e+00       2.96017e-04       1.82339e+02
 12.900      2.14773e+02       3.55294e+01       6.34138e+00       2.89907e-04       1.78699e+02
 13.000      2.14935e+02       3.47163e+01       6.62894e+00       2.83869e-04       1.75108e+02
 13.100      2.15106e+02       3.39384e+01       6.91474e+00       2.77922e-04       1.71577e+02
 13.200      2.15281e+02       3.31978e+01       7.19326e+00       2.72088e-04       1.68112e+02
 13.300      2.15454e+02       3.24966e+01       7.45900e+00       2.66386e-04       1.64721e+02
 13.400      2.15621e+02       3.18370e+01       7.70644e+00       2.60831e-04       1.61410e+02
 13.500      2.15775e+02       3.12213e+01       7.93005e+00       2.55439e-04       1.58186e+02
 13.600      2.15911e+02       3.06517e+01       8.12433e+00       2.50223e-04       1.55055e+02
 13.700      2.16025e+02       3.01302e+01       8.28375e+00       2.45197e-04       1.52020e+02
 13.800      2.16110e+02       2.96591e+01       8.40285e+00       2.40371e-04       1.49087e+02
 13.900      2.16165e+02       2.92386e+01       8.47896e+00       2.35746e-04       1.46255e+02
 14.000      2.16189e+02       2.88655e+01       8.51401e+00       2.31312e-04       1.43520e+02
 14.100      2.16186e+02       2.85365e+01       8.51035e+00       2.27055e-04       1.40877e+02
 14.200      2.16156e+02       2.82481e+01       8.47033e+00       2.22966e-04       1.38321e+02
 14.300      2.16103e+02       2.79971e+01       8.39629e+00       2.19032e-04       1.35847e+02
 14.400      2.16026e+02       2.77799e+01       8.29058e+00       2.15244e-04       1.33450e+02
 14.500      2.15929e+02       2.75932e+01       8.15554e+00       2.11592e-04       1.31127e+02
 14.600      2.15813e+02       2.74337e+01       7.99353e+00       2.08067e-04       1.28873e+02
 14.700      2.15679e+02       2.72979e+01       7.80689e+00       2.04661e-04       1.26685e+02
 14.800      2.15530e+02       2.71824e+01       7.59797e+00       2.01366e-04       1.24560e+02
 14.900      2.15368e+02       2.70839e+01       7.36912e+00       1.98174e-04       1.22492e+02
 15.000      2.15193e+02       2.69990e+01       7.12268e+00       1.95078e-04       1.20481e+02
 15.100      2.15008e+02       2.69242e+01       6.86100e+00       1.92071e-04       1.18522e+02
 15.200      2.14814e+02       2.68563e+01       6.58643e+00       1.89146e-04       1.16612e+02
 15.300      2.14614e+02       2.67918e+01       6.30131e+00       1.86298e-04       1.14749e+02
 15.400      2.14409e+02       2.67272e+01       6.00800e+00       1.83519e-04       1.12929e+02
 15.500      2.14201e+02       2.66593e+01       5.70883e+00       1.80806e-04       1.11152e+02
 15.600      2.13991e+02       2.65847e+01       5.40616e+00       1.78152e-04       1.09413e+02
 15.700      2.13781e+02       2.64999e+01       5.10233e+00       1.75553e-04       1.07711e+02
 15.800      2.13574e+02       2.64016e+01       4.79970e+00       1.73003e-04       1.06043e+02
 15.900      2.13371e+02       2.62863e+01       4.50060e+00       1.70498e-04       1.04408e+02
 16.000      2.13173e+02       2.61508e+01       4.20739e+00       1.68033e-04       1.02804e+02
 16.100      2.12983e+02       2.59915e+01       3.92241e+00       1.65605e-04       1.01228e+02
 16.200      2.12802e+02       2.58052e+01       3.64801e+00       1.63209e-04       9.96787e+01
 16.300      2.12631e+02       2.55898e+01       3.38580e+00       1.60843e-04       9.81549e+01
 16.400      2.12471e+02       2.53461e+01       3.13579e+00       1.58506e-04       9.66554e+01
 16.500      2.12321e+02       2.50754e+01       2.89780e+00       1.56195e-04       9.51796e+01
 16.600      2.12182e+02       2.47790e+01       2.67163e+00       1.53912e-04       9.37267e+01
 16.700      2.12053e+02       2.44582e+01       2.45709e+00       1.51654e-04       9.22959e+01
 16.800      2.11935e+02       2.41141e+01       2.25400e+00       1.49422e-04       9.08866e+01
 16.900      2.11827e+02       2.37480e+01       2.06215e+00       1.47214e-04       8.94980e+01
 17.000      2.11729e+02       2.33613e+01       1.88137e+00       1.45030e-04       8.81295e+01
 17.100      2.11642e+02       2.29551e+01       1.71145e+00       1.42869e-04       8.67806e+01
 17.200      2.11565e+02       2.25307e+01       1.55221e+00       1.40731e-04       8.54506e+01
 17.300      2.11498e+02       2.20894e+01       1.40345e+00       1.38615e-04       8.41389e+01
 17.400      2.11441e+02       2.16324e+01       1.26499e+00       1.36520e-04       8.28451e+01
 17.500      2.11394e+02       2.11610e+01       1.13663e+00       1.34446e-04       8.15684e+01
 17.600      2.11358e+02       2.06764e+01       1.01818e+00       1.32392e-04       8.03086e+01
 17.700      2.11331e+02       2.01800e+01       9.09458e-01       1.30358e-04       7.90650e+01
 17.800      2.11315e+02       1.96729e+01       8.10262e-01       1.28344e-04       7.78373e+01
 17.900      2.11308e+02       1.91564e+01       7.20402e-01       1.26349e-04       7.66250e+01
 18.000      2.11311e+02       1.86317e+01       6.39690e-01       1.24373e-04       7.54276e+01
 18.100      2.11325e+02       1.81002e+01       5.67934e-01       1.22415e-04       7.42447e+01
 18.200      2.11348e+02       1.75631e+01       5.04941e-01       1.20475e-04       7.30760e+01
 18.300      2.11381e+02       1.70216e+01       4.50524e-01       1.18552e-04       7.19211e+01
 18.400      2.11423e+02       1.64770e+01       4.04488e-01       1.16647e-04       7.07796e+01
 18.500      2.11476e+02       1.59305e+01       3.66643e-01       1.14759e-04       6.96512e+01
 18.600      2.11538e+02       1.53836e+01       3.36814e-01       1.12888e-04       6.85359e+01
 18.700      2.11609e+02       1.48375e+01       3.14856e-01       1.11036e-04       6.74340e+01
 18.800      2.11688e+02       1.42939e+01       3.00624e-01       1.09203e-04       6.63459e+01
 18.900      2.11775e+02       1.37541e+01       2.93974e-01       1.07392e-04       6.52720e+01
 19.000      2.11869e+02       1.32195e+01       2.94761e-01       1.05601e-04       6.42125e+01
 19.100      2.11970e+02       1.26918e+01       3.02841e-01       1.03834e-04       6.31677e+01
 19.200      2.12077e+02       1.21722e+01       3.18070e-01       1.02090e-04       6.21380e+01
 19.300      2.12189e+02       1.16623e+01       3.40303e-01       1.00370e-04       6.11236e+01
 19.400      2.12306e+02       1.11634e+01       3.69397e-01       9.86753e-05       6.01247e+01
 19.500      2.12427e+02       1.06772e+01       4.05207e-01       9.70061e-05       5.91414e+01
 19.600      2.12552e+02       1.02050e+01       4.47590e-01       9.53631e-05       5.81739e+01
 19.700      2.12680e+02       9.74822e+00       4.96400e-01       9.37469e-05       5.72224e+01
 19.800      2.12811e+02       9.30841e+00       5.51492e-01       9.21578e-05       5.62869e+01
 19.900      2.12943e+02       8.88697e+00       6.12724e-01       9.05964e-05       5.53677e+01
 20.000      2.13077e+02       8.48538e+00       6.79952e-01       8.90629e-05       5.44647e+01
 20.100      2.13211e+02       8.10508e+00       7.53030e-01       8.75578e-05       5.35780e+01
 20.200      2.13346e+02       7.74754e+00       8.31815e-01       8.60812e-05       5.27077e+01
 20.300      2.13480e+02       7.41421e+00       9.16161e-01       8.46335e-05       5.18538e+01
