# Data Source: NASA GEOS5 Near-Real-Time
# Model Time = 2010-09-14 18:00:00
# Location = [  39.7393, -104.9900 ]
# Fields = [ Z(km), T(K), U(m/s), V(m/s), R(g/cm3), P(mbar) ]
# Ground Height = 1.589
  0.000      3.09886e+02      -1.65488e+00       3.37244e+00       1.13977e-03       1.01367e+03
  0.100      3.09308e+02      -1.67353e+00       3.38501e+00       1.12856e-03       1.00184e+03
  0.200      3.08735e+02      -1.69297e+00       3.39818e+00       1.11746e-03       9.90144e+02
  0.300      3.08139e+02      -1.70821e+00       3.40817e+00       1.10656e-03       9.78595e+02
  0.400      3.07499e+02      -1.71550e+00       3.41140e+00       1.09596e-03       9.67206e+02
  0.500      3.06829e+02      -1.72395e+00       3.40617e+00       1.08559e-03       9.55969e+02
  0.600      3.06163e+02      -1.74997e+00       3.39239e+00       1.07532e-03       9.44868e+02
  0.700      3.05512e+02      -1.79284e+00       3.38272e+00       1.06510e-03       9.33899e+02
  0.800      3.04856e+02      -1.83295e+00       3.40376e+00       1.05502e-03       9.23074e+02
  0.900      3.04182e+02      -1.85040e+00       3.46369e+00       1.04513e-03       9.12398e+02
  1.000      3.03497e+02      -1.82692e+00       3.52534e+00       1.03539e-03       9.01862e+02
  1.100      3.02808e+02      -1.75127e+00       3.55198e+00       1.02577e-03       8.91454e+02
  1.200      3.02121e+02      -1.65886e+00       3.55512e+00       1.01625e-03       8.81175e+02
  1.300      3.01443e+02      -1.60386e+00       3.56605e+00       1.00681e-03       8.71030e+02
  1.400      3.00776e+02      -1.60577e+00       3.59639e+00       9.97443e-04       8.61018e+02
  1.500      3.00112e+02      -1.63803e+00       3.63149e+00       9.88177e-04       8.51138e+02
  1.600      2.99441e+02      -1.67090e+00       3.65581e+00       9.79041e-04       8.41384e+02
  1.700      2.98731e+02      -1.67444e+00       3.65869e+00       9.70128e-04       8.31746e+02
  1.800      2.97940e+02      -1.61893e+00       3.63129e+00       9.61551e-04       8.22212e+02
  1.900      2.97065e+02      -1.50022e+00       3.57252e+00       9.53315e-04       8.12774e+02
  2.000      2.96158e+02      -1.35826e+00       3.49459e+00       9.45239e-04       8.03428e+02
  2.100      2.95276e+02      -1.23467e+00       3.41016e+00       9.37139e-04       7.94172e+02
  2.200      2.94438e+02      -1.13534e+00       3.32025e+00       9.28957e-04       7.85004e+02
  2.300      2.93635e+02      -1.04072e+00       3.21764e+00       9.20723e-04       7.75923e+02
  2.400      2.92856e+02      -9.33356e-01       3.09725e+00       9.12472e-04       7.66929e+02
  2.500      2.92084e+02      -8.09913e-01       2.96656e+00       9.04259e-04       7.58022e+02
  2.600      2.91300e+02      -6.71834e-01       2.83733e+00       8.96144e-04       7.49204e+02
  2.700      2.90489e+02      -5.16599e-01       2.72201e+00       8.88175e-04       7.40475e+02
  2.800      2.89644e+02      -3.29561e-01       2.63507e+00       8.80365e-04       7.31828e+02
  2.900      2.88760e+02      -9.38155e-02       2.59133e+00       8.72718e-04       7.23259e+02
  3.000      2.87840e+02       1.97256e-01       2.59555e+00       8.65224e-04       7.14762e+02
  3.100      2.86899e+02       5.27578e-01       2.63022e+00       8.57833e-04       7.06340e+02
  3.200      2.85958e+02       8.78088e-01       2.67496e+00       8.50489e-04       6.97995e+02
  3.300      2.85027e+02       1.23579e+00       2.72042e+00       8.43158e-04       6.89727e+02
  3.400      2.84108e+02       1.59978e+00       2.77931e+00       8.35836e-04       6.81533e+02
  3.500      2.83198e+02       1.97056e+00       2.86691e+00       8.28525e-04       6.73408e+02
  3.600      2.82295e+02       2.34675e+00       2.99354e+00       8.21230e-04       6.65351e+02
  3.700      2.81393e+02       2.72278e+00       3.15840e+00       8.13973e-04       6.57362e+02
  3.800      2.80485e+02       3.09246e+00       3.35916e+00       8.06772e-04       6.49444e+02
  3.900      2.79566e+02       3.44991e+00       3.59186e+00       7.99642e-04       6.41597e+02
  4.000      2.78642e+02       3.79019e+00       3.84719e+00       7.92570e-04       6.33820e+02
  4.100      2.77717e+02       4.10853e+00       4.11482e+00       7.85537e-04       6.26112e+02
  4.200      2.76798e+02       4.40002e+00       4.38617e+00       7.78529e-04       6.18471e+02
  4.300      2.75882e+02       4.65878e+00       4.66387e+00       7.71549e-04       6.10898e+02
  4.400      2.74967e+02       4.87858e+00       4.95480e+00       7.64606e-04       6.03393e+02
  4.500      2.74052e+02       5.05331e+00       5.26557e+00       7.57708e-04       5.95959e+02
  4.600      2.73138e+02       5.17930e+00       5.59679e+00       7.50848e-04       5.88594e+02
  4.700      2.72230e+02       5.25509e+00       5.94382e+00       7.44012e-04       5.81296e+02
  4.800      2.71334e+02       5.27926e+00       6.30180e+00       7.37181e-04       5.74064e+02
  4.900      2.70453e+02       5.25633e+00       6.66642e+00       7.30350e-04       5.66897e+02
  5.000      2.69581e+02       5.20694e+00       7.03484e+00       7.23534e-04       5.59796e+02
  5.100      2.68710e+02       5.15441e+00       7.40446e+00       7.16755e-04       5.52761e+02
  5.200      2.67836e+02       5.12176e+00       7.77186e+00       7.10031e-04       5.45793e+02
  5.300      2.66960e+02       5.12682e+00       8.12180e+00       7.03355e-04       5.38894e+02
  5.400      2.66092e+02       5.18351e+00       8.43003e+00       6.96702e-04       5.32060e+02
  5.500      2.65242e+02       5.30567e+00       8.67207e+00       6.90046e-04       5.25293e+02
  5.600      2.64418e+02       5.50460e+00       8.82668e+00       6.83362e-04       5.18590e+02
  5.700      2.63634e+02       5.78006e+00       8.88731e+00       6.76623e-04       5.11953e+02
  5.800      2.62900e+02       6.12856e+00       8.85159e+00       6.69805e-04       5.05382e+02
  5.900      2.62227e+02       6.54656e+00       8.71718e+00       6.62881e-04       4.98878e+02
  6.000      2.61620e+02       7.02857e+00       8.48800e+00       6.55845e-04       4.92441e+02
  6.100      2.61069e+02       7.56430e+00       8.18309e+00       6.48728e-04       4.86071e+02
  6.200      2.60559e+02       8.14279e+00       7.82369e+00       6.41569e-04       4.79769e+02
  6.300      2.60079e+02       8.75307e+00       7.43105e+00       6.34402e-04       4.73534e+02
  6.400      2.59613e+02       9.38699e+00       7.02554e+00       6.27261e-04       4.67366e+02
  6.500      2.59152e+02       1.00421e+01       6.62581e+00       6.20177e-04       4.61267e+02
  6.600      2.58684e+02       1.07167e+01       6.25032e+00       6.13177e-04       4.55236e+02
  6.700      2.58196e+02       1.14090e+01       5.91750e+00       6.06289e-04       4.49274e+02
  6.800      2.57680e+02       1.21176e+01       5.64095e+00       5.99533e-04       4.43380e+02
  6.900      2.57134e+02       1.28428e+01       5.42087e+00       5.92912e-04       4.37553e+02
  7.000      2.56554e+02       1.35847e+01       5.25513e+00       5.86425e-04       4.31791e+02
  7.100      2.55941e+02       1.43438e+01       5.14160e+00       5.80071e-04       4.26091e+02
  7.200      2.55291e+02       1.51192e+01       5.07735e+00       5.73851e-04       4.20452e+02
  7.300      2.54610e+02       1.59023e+01       5.05367e+00       5.67751e-04       4.14873e+02
  7.400      2.53902e+02       1.66811e+01       5.05930e+00       5.61757e-04       4.09352e+02
  7.500      2.53174e+02       1.74435e+01       5.08299e+00       5.55856e-04       4.03889e+02
  7.600      2.52431e+02       1.81776e+01       5.11354e+00       5.50031e-04       3.98484e+02
  7.700      2.51678e+02       1.88787e+01       5.14635e+00       5.44270e-04       3.93136e+02
  7.800      2.50922e+02       1.95559e+01       5.18852e+00       5.38563e-04       3.87844e+02
  7.900      2.50166e+02       2.02191e+01       5.24837e+00       5.32898e-04       3.82607e+02
  8.000      2.49415e+02       2.08787e+01       5.33423e+00       5.27265e-04       3.77427e+02
  8.100      2.48675e+02       2.15443e+01       5.45425e+00       5.21653e-04       3.72302e+02
  8.200      2.47946e+02       2.22155e+01       5.61330e+00       5.16062e-04       3.67233e+02
  8.300      2.47226e+02       2.28828e+01       5.81318e+00       5.10497e-04       3.62218e+02
  8.400      2.46511e+02       2.35361e+01       6.05559e+00       5.04965e-04       3.57256e+02
  8.500      2.45799e+02       2.41654e+01       6.34223e+00       4.99471e-04       3.52349e+02
  8.600      2.45086e+02       2.47609e+01       6.67435e+00       4.94022e-04       3.47494e+02
  8.700      2.44369e+02       2.53160e+01       7.04437e+00       4.88626e-04       3.42692e+02
  8.800      2.43641e+02       2.58271e+01       7.43622e+00       4.83292e-04       3.37942e+02
  8.900      2.42898e+02       2.62908e+01       7.83349e+00       4.78031e-04       3.33243e+02
  9.000      2.42134e+02       2.67038e+01       8.21980e+00       4.72851e-04       3.28596e+02
  9.100      2.41343e+02       2.70627e+01       8.57872e+00       4.67763e-04       3.23999e+02
  9.200      2.40525e+02       2.73691e+01       8.89611e+00       4.62768e-04       3.19452e+02
  9.300      2.39685e+02       2.76358e+01       9.16246e+00       4.57853e-04       3.14955e+02
  9.400      2.38830e+02       2.78767e+01       9.36888e+00       4.53002e-04       3.10506e+02
  9.500      2.37966e+02       2.81057e+01       9.50649e+00       4.48202e-04       3.06105e+02
  9.600      2.37101e+02       2.83368e+01       9.56639e+00       4.43437e-04       3.01750e+02
  9.700      2.36242e+02       2.85835e+01       9.54077e+00       4.38695e-04       2.97442e+02
  9.800      2.35394e+02       2.88511e+01       9.43816e+00       4.33966e-04       2.93179e+02
  9.900      2.34560e+02       2.91385e+01       9.27984e+00       4.29244e-04       2.88962e+02
 10.000      2.33746e+02       2.94445e+01       9.08745e+00       4.24523e-04       2.84792e+02
 10.100      2.32954e+02       2.97678e+01       8.88261e+00       4.19798e-04       2.80668e+02
 10.200      2.32189e+02       3.01074e+01       8.68694e+00       4.15063e-04       2.76590e+02
 10.300      2.31455e+02       3.04619e+01       8.52135e+00       4.10312e-04       2.72560e+02
 10.400      2.30750e+02       3.08305e+01       8.39639e+00       4.05549e-04       2.68576e+02
 10.500      2.30073e+02       3.12124e+01       8.31472e+00       4.00781e-04       2.64640e+02
 10.600      2.29419e+02       3.16067e+01       8.27885e+00       3.96015e-04       2.60749e+02
 10.700      2.28786e+02       3.20128e+01       8.29126e+00       3.91258e-04       2.56906e+02
 10.800      2.28168e+02       3.24299e+01       8.35445e+00       3.86518e-04       2.53108e+02
 10.900      2.27564e+02       3.28572e+01       8.47089e+00       3.81800e-04       2.49357e+02
 11.000      2.26971e+02       3.32924e+01       8.63827e+00       3.77110e-04       2.45652e+02
 11.100      2.26390e+02       3.37295e+01       8.84275e+00       3.72447e-04       2.41993e+02
 11.200      2.25821e+02       3.41619e+01       9.06878e+00       3.67809e-04       2.38379e+02
 11.300      2.25265e+02       3.45832e+01       9.30082e+00       3.63195e-04       2.34810e+02
 11.400      2.24725e+02       3.49867e+01       9.52332e+00       3.58603e-04       2.31285e+02
 11.500      2.24200e+02       3.53658e+01       9.72072e+00       3.54034e-04       2.27804e+02
 11.600      2.23692e+02       3.57141e+01       9.87750e+00       3.49484e-04       2.24368e+02
 11.700      2.23202e+02       3.60243e+01       9.98238e+00       3.44955e-04       2.20974e+02
 11.800      2.22729e+02       3.62881e+01       1.00340e+01       3.40448e-04       2.17625e+02
 11.900      2.22272e+02       3.64965e+01       1.00325e+01       3.35965e-04       2.14319e+02
 12.000      2.21832e+02       3.66411e+01       9.97791e+00       3.31510e-04       2.11058e+02
 12.100      2.21407e+02       3.67130e+01       9.87026e+00       3.27083e-04       2.07841e+02
 12.200      2.20997e+02       3.67036e+01       9.70965e+00       3.22687e-04       2.04668e+02
 12.300      2.20602e+02       3.66042e+01       9.49614e+00       3.18324e-04       2.01540e+02
 12.400      2.20221e+02       3.64064e+01       9.23002e+00       3.13995e-04       1.98456e+02
 12.500      2.19853e+02       3.61105e+01       8.91655e+00       3.09703e-04       1.95416e+02
 12.600      2.19494e+02       3.57251e+01       8.56593e+00       3.05451e-04       1.92419e+02
 12.700      2.19143e+02       3.52591e+01       8.18858e+00       3.01242e-04       1.89463e+02
 12.800      2.18796e+02       3.47217e+01       7.79491e+00       2.97078e-04       1.86548e+02
 12.900      2.18451e+02       3.41218e+01       7.39534e+00       2.92962e-04       1.83673e+02
 13.000      2.18104e+02       3.34685e+01       7.00027e+00       2.88896e-04       1.80837e+02
 13.100      2.17754e+02       3.27708e+01       6.62013e+00       2.84882e-04       1.78038e+02
 13.200      2.17398e+02       3.20376e+01       6.26534e+00       2.80923e-04       1.75277e+02
 13.300      2.17033e+02       3.12772e+01       5.94459e+00       2.77020e-04       1.72551e+02
 13.400      2.16660e+02       3.04926e+01       5.65737e+00       2.73171e-04       1.69862e+02
 13.500      2.16282e+02       2.96854e+01       5.40002e+00       2.69376e-04       1.67209e+02
 13.600      2.15899e+02       2.88571e+01       5.16890e+00       2.65632e-04       1.64594e+02
 13.700      2.15513e+02       2.80092e+01       4.96034e+00       2.61938e-04       1.62015e+02
 13.800      2.15127e+02       2.71433e+01       4.77071e+00       2.58292e-04       1.59473e+02
 13.900      2.14743e+02       2.62608e+01       4.59635e+00       2.54692e-04       1.56970e+02
 14.000      2.14361e+02       2.53634e+01       4.43360e+00       2.51136e-04       1.54503e+02
 14.100      2.13984e+02       2.44524e+01       4.27883e+00       2.47624e-04       1.52075e+02
 14.200      2.13614e+02       2.35294e+01       4.12837e+00       2.44154e-04       1.49684e+02
 14.300      2.13251e+02       2.25973e+01       3.97974e+00       2.40724e-04       1.47330e+02
 14.400      2.12895e+02       2.16622e+01       3.83356e+00       2.37332e-04       1.45012e+02
 14.500      2.12546e+02       2.07312e+01       3.69098e+00       2.33977e-04       1.42728e+02
 14.600      2.12203e+02       1.98110e+01       3.55314e+00       2.30658e-04       1.40476e+02
 14.700      2.11864e+02       1.89086e+01       3.42120e+00       2.27373e-04       1.38254e+02
 14.800      2.11528e+02       1.80308e+01       3.29629e+00       2.24120e-04       1.36060e+02
 14.900      2.11196e+02       1.71844e+01       3.17957e+00       2.20899e-04       1.33894e+02
 15.000      2.10866e+02       1.63764e+01       3.07218e+00       2.17707e-04       1.31753e+02
 15.100      2.10538e+02       1.56137e+01       2.97527e+00       2.14545e-04       1.29637e+02
 15.200      2.10210e+02       1.49030e+01       2.88998e+00       2.11410e-04       1.27544e+02
 15.300      2.09881e+02       1.42513e+01       2.81747e+00       2.08303e-04       1.25473e+02
 15.400      2.09552e+02       1.36644e+01       2.75865e+00       2.05221e-04       1.23423e+02
 15.500      2.09223e+02       1.31402e+01       2.71259e+00       2.02166e-04       1.21395e+02
 15.600      2.08897e+02       1.26723e+01       2.67747e+00       1.99140e-04       1.19391e+02
 15.700      2.08575e+02       1.22545e+01       2.65145e+00       1.96142e-04       1.17413e+02
 15.800      2.08261e+02       1.18806e+01       2.63271e+00       1.93175e-04       1.15462e+02
 15.900      2.07955e+02       1.15444e+01       2.61942e+00       1.90240e-04       1.13541e+02
 16.000      2.07661e+02       1.12396e+01       2.60973e+00       1.87337e-04       1.11651e+02
 16.100      2.07381e+02       1.09599e+01       2.60182e+00       1.84468e-04       1.09792e+02
 16.200      2.07116e+02       1.06991e+01       2.59385e+00       1.81632e-04       1.07966e+02
 16.300      2.06869e+02       1.04509e+01       2.58400e+00       1.78832e-04       1.06175e+02
 16.400      2.06643e+02       1.02092e+01       2.57043e+00       1.76068e-04       1.04419e+02
 16.500      2.06438e+02       9.96765e+00       2.55131e+00       1.73339e-04       1.02700e+02
 16.600      2.06259e+02       9.72002e+00       2.52481e+00       1.70648e-04       1.01017e+02
 16.700      2.06106e+02       9.46015e+00       2.48911e+00       1.67994e-04       9.93723e+01
 16.800      2.05981e+02       9.18499e+00       2.44349e+00       1.65376e-04       9.77648e+01
 16.900      2.05883e+02       8.89573e+00       2.38862e+00       1.62795e-04       9.61930e+01
 17.000      2.05812e+02       8.59388e+00       2.32532e+00       1.60248e-04       9.46551e+01
 17.100      2.05766e+02       8.28093e+00       2.25438e+00       1.57734e-04       9.31493e+01
 17.200      2.05745e+02       7.95838e+00       2.17661e+00       1.55252e-04       9.16743e+01
 17.300      2.05748e+02       7.62773e+00       2.09280e+00       1.52801e-04       9.02283e+01
 17.400      2.05775e+02       7.29046e+00       2.00376e+00       1.50379e-04       8.88101e+01
 17.500      2.05825e+02       6.94807e+00       1.91028e+00       1.47986e-04       8.74181e+01
 17.600      2.05896e+02       6.60207e+00       1.81316e+00       1.45622e-04       8.60510e+01
 17.700      2.05989e+02       6.25395e+00       1.71321e+00       1.43284e-04       8.47077e+01
 17.800      2.06102e+02       5.90521e+00       1.61122e+00       1.40972e-04       8.33869e+01
 17.900      2.06235e+02       5.55733e+00       1.50800e+00       1.38686e-04       8.20874e+01
 18.000      2.06388e+02       5.21183e+00       1.40434e+00       1.36424e-04       8.08082e+01
 18.100      2.06558e+02       4.87018e+00       1.30104e+00       1.34186e-04       7.95482e+01
 18.200      2.06746e+02       4.53390e+00       1.19890e+00       1.31971e-04       7.83065e+01
 18.300      2.06951e+02       4.20448e+00       1.09874e+00       1.29779e-04       7.70821e+01
 18.400      2.07172e+02       3.88341e+00       1.00133e+00       1.27608e-04       7.58740e+01
 18.500      2.07409e+02       3.57219e+00       9.07490e-01       1.25460e-04       7.46815e+01
 18.600      2.07660e+02       3.27232e+00       8.18011e-01       1.23332e-04       7.35038e+01
 18.700      2.07925e+02       2.98528e+00       7.33697e-01       1.21224e-04       7.23400e+01
 18.800      2.08203e+02       2.71260e+00       6.55348e-01       1.19137e-04       7.11895e+01
 18.900      2.08494e+02       2.45574e+00       5.83761e-01       1.17069e-04       7.00516e+01
 19.000      2.08797e+02       2.21589e+00       5.19591e-01       1.15021e-04       6.89257e+01
 19.100      2.09110e+02       1.99275e+00       4.62810e-01       1.12993e-04       6.78124e+01
 19.200      2.09432e+02       1.78558e+00       4.13201e-01       1.10989e-04       6.67121e+01
 19.300      2.09762e+02       1.59366e+00       3.70542e-01       1.09009e-04       6.56254e+01
 19.400      2.10099e+02       1.41624e+00       3.34614e-01       1.07056e-04       6.45528e+01
 19.500      2.10442e+02       1.25261e+00       3.05197e-01       1.05129e-04       6.34948e+01
 19.600      2.10789e+02       1.10203e+00       2.82071e-01       1.03232e-04       6.24516e+01
 19.700      2.11139e+02       9.63779e-01       2.65016e-01       1.01365e-04       6.14238e+01
 19.800      2.11491e+02       8.37120e-01       2.53813e-01       9.95286e-05       6.04117e+01
 19.900      2.11843e+02       7.21322e-01       2.48242e-01       9.77245e-05       5.94156e+01
 20.000      2.12195e+02       6.15657e-01       2.48082e-01       9.59534e-05       5.84357e+01
 20.100      2.12546e+02       5.19395e-01       2.53114e-01       9.42160e-05       5.74724e+01
 20.200      2.12893e+02       4.31805e-01       2.63119e-01       9.25131e-05       5.65257e+01
 20.300      2.13236e+02       3.52160e-01       2.77875e-01       9.08452e-05       5.55960e+01
