# Data Source: NASA GEOS5 Near-Real-Time
# Model Time = 2011-08-13 18:00:00
# Location = [  39.1026,  -84.5123 ]
# Fields = [ Z(km), T(K), U(m/s), V(m/s), R(g/cm3), P(mbar) ]
# Ground Height = 0.165
  0.000      3.03658e+02       1.81293e+00       1.46561e+00       1.16192e-03       1.01261e+03
  0.100      3.02938e+02       1.86943e+00       1.49930e+00       1.15149e-03       1.00114e+03
  0.200      3.02230e+02       1.92402e+00       1.53206e+00       1.14110e-03       9.89792e+02
  0.300      3.01402e+02       1.99588e+00       1.57321e+00       1.13129e-03       9.78593e+02
  0.400      3.00334e+02       2.10175e+00       1.62930e+00       1.12250e-03       9.67554e+02
  0.500      2.99109e+02       2.23065e+00       1.67616e+00       1.11440e-03       9.56651e+02
  0.600      2.97928e+02       2.35493e+00       1.67125e+00       1.10618e-03       9.45840e+02
  0.700      2.96880e+02       2.47689e+00       1.61352e+00       1.09747e-03       9.35097e+02
  0.800      2.95901e+02       2.63968e+00       1.55839e+00       1.08855e-03       9.24435e+02
  0.900      2.94938e+02       2.87981e+00       1.55249e+00       1.07961e-03       9.13864e+02
  1.000      2.94032e+02       3.20151e+00       1.59905e+00       1.07052e-03       9.03384e+02
  1.100      2.93235e+02       3.60031e+00       1.68924e+00       1.06109e-03       8.92996e+02
  1.200      2.92532e+02       4.05148e+00       1.78325e+00       1.05138e-03       8.82702e+02
  1.300      2.91864e+02       4.51762e+00       1.82192e+00       1.04160e-03       8.72499e+02
  1.400      2.91189e+02       4.97238e+00       1.77231e+00       1.03192e-03       8.62391e+02
  1.500      2.90494e+02       5.41152e+00       1.65358e+00       1.02238e-03       8.52374e+02
  1.600      2.89774e+02       5.83346e+00       1.48855e+00       1.01298e-03       8.42450e+02
  1.700      2.89065e+02       6.23744e+00       1.27973e+00       1.00362e-03       8.32619e+02
  1.800      2.88421e+02       6.62304e+00       1.01953e+00       9.94098e-04       8.22881e+02
  1.900      2.87867e+02       6.98335e+00       7.10261e-01       9.84339e-04       8.13239e+02
  2.000      2.87370e+02       7.29770e+00       3.75244e-01       9.74464e-04       8.03692e+02
  2.100      2.86891e+02       7.54555e+00       3.98770e-02       9.64615e-04       7.94241e+02
  2.200      2.86404e+02       7.73372e+00      -2.79366e-01       9.54870e-04       7.84885e+02
  2.300      2.85899e+02       7.88950e+00      -5.72687e-01       9.45268e-04       7.75621e+02
  2.400      2.85366e+02       8.03832e+00      -8.30532e-01       9.35835e-04       7.66449e+02
  2.500      2.84805e+02       8.19421e+00      -1.04375e+00       9.26563e-04       7.57365e+02
  2.600      2.84221e+02       8.36764e+00      -1.20333e+00       9.17435e-04       7.48366e+02
  2.700      2.83616e+02       8.56253e+00      -1.30812e+00       9.08439e-04       7.39451e+02
  2.800      2.82990e+02       8.76736e+00      -1.37541e+00       8.99579e-04       7.30622e+02
  2.900      2.82341e+02       8.96850e+00      -1.42501e+00       8.90860e-04       7.21881e+02
  3.000      2.81672e+02       9.15664e+00      -1.47180e+00       8.82275e-04       7.13229e+02
  3.100      2.80988e+02       9.32869e+00      -1.52356e+00       8.73798e-04       7.04661e+02
  3.200      2.80296e+02       9.48212e+00      -1.58725e+00       8.65402e-04       6.96173e+02
  3.300      2.79599e+02       9.61490e+00      -1.66353e+00       8.57078e-04       6.87762e+02
  3.400      2.78893e+02       9.72562e+00      -1.74587e+00       8.48839e-04       6.79430e+02
  3.500      2.78175e+02       9.81293e+00      -1.82740e+00       8.40695e-04       6.71179e+02
  3.600      2.77444e+02       9.87567e+00      -1.90297e+00       8.32649e-04       6.63009e+02
  3.700      2.76700e+02       9.91294e+00      -1.96925e+00       8.24699e-04       6.54918e+02
  3.800      2.75945e+02       9.92391e+00      -2.02301e+00       8.16839e-04       6.46905e+02
  3.900      2.75176e+02       9.91162e+00      -2.05999e+00       8.09069e-04       6.38967e+02
  4.000      2.74391e+02       9.88425e+00      -2.07463e+00       8.01398e-04       6.31103e+02
  4.100      2.73587e+02       9.85040e+00      -2.06125e+00       7.93832e-04       6.23312e+02
  4.200      2.72768e+02       9.83066e+00      -2.01749e+00       7.86354e-04       6.15592e+02
  4.300      2.71958e+02       9.87097e+00      -1.94794e+00       7.78898e-04       6.07945e+02
  4.400      2.71184e+02       1.00206e+01      -1.85811e+00       7.71391e-04       6.00372e+02
  4.500      2.70465e+02       1.03168e+01      -1.75282e+00       7.63782e-04       5.92874e+02
  4.600      2.69789e+02       1.07415e+01      -1.63391e+00       7.56109e-04       5.85450e+02
  4.700      2.69134e+02       1.12608e+01      -1.50231e+00       7.48432e-04       5.78099e+02
  4.800      2.68478e+02       1.18417e+01      -1.35906e+00       7.40812e-04       5.70820e+02
  4.900      2.67814e+02       1.24691e+01      -1.20712e+00       7.33273e-04       5.63613e+02
  5.000      2.67141e+02       1.31426e+01      -1.05101e+00       7.25815e-04       5.56479e+02
  5.100      2.66461e+02       1.38623e+01      -8.95296e-01       7.18437e-04       5.49420e+02
  5.200      2.65778e+02       1.46304e+01      -7.38720e-01       7.11129e-04       5.42436e+02
  5.300      2.65102e+02       1.54556e+01      -5.61849e-01       7.03858e-04       5.35525e+02
  5.400      2.64447e+02       1.63480e+01      -3.41707e-01       6.96590e-04       5.28686e+02
  5.500      2.63827e+02       1.73161e+01      -5.57721e-02       6.89288e-04       5.21917e+02
  5.600      2.63246e+02       1.83278e+01       3.05473e-01       6.81941e-04       5.15217e+02
  5.700      2.62702e+02       1.93050e+01       7.36984e-01       6.74560e-04       5.08587e+02
  5.800      2.62191e+02       2.01673e+01       1.23295e+00       6.67158e-04       5.02029e+02
  5.900      2.61711e+02       2.08406e+01       1.78677e+00       6.59746e-04       4.95542e+02
  6.000      2.61254e+02       2.13190e+01       2.38326e+00       6.52344e-04       4.89127e+02
  6.100      2.60814e+02       2.16380e+01       3.00206e+00       6.44973e-04       4.82785e+02
  6.200      2.60381e+02       2.18337e+01       3.62272e+00       6.37653e-04       4.76514e+02
  6.300      2.59948e+02       2.19384e+01       4.22592e+00       6.30406e-04       4.70315e+02
  6.400      2.59511e+02       2.19514e+01       4.80191e+00       6.23242e-04       4.64188e+02
  6.500      2.59064e+02       2.18553e+01       5.34579e+00       6.16172e-04       4.58131e+02
  6.600      2.58602e+02       2.16325e+01       5.85270e+00       6.09203e-04       4.52144e+02
  6.700      2.58123e+02       2.12699e+01       6.31669e+00       6.02347e-04       4.46226e+02
  6.800      2.57615e+02       2.08085e+01       6.71776e+00       5.95621e-04       4.40375e+02
  6.900      2.57064e+02       2.03271e+01       7.02614e+00       5.89053e-04       4.34587e+02
  7.000      2.56456e+02       1.99051e+01       7.21189e+00       5.82669e-04       4.28861e+02
  7.100      2.55778e+02       1.96215e+01       7.24549e+00       5.76493e-04       4.23193e+02
  7.200      2.55028e+02       1.95179e+01       7.12748e+00       5.70522e-04       4.17582e+02
  7.300      2.54225e+02       1.95754e+01       6.90665e+00       5.64712e-04       4.12028e+02
  7.400      2.53389e+02       1.97699e+01       6.63615e+00       5.59016e-04       4.06532e+02
  7.500      2.52543e+02       2.00772e+01       6.36912e+00       5.53387e-04       4.01093e+02
  7.600      2.51703e+02       2.04746e+01       6.15323e+00       5.47785e-04       3.95714e+02
  7.700      2.50877e+02       2.09506e+01       5.99532e+00       5.42197e-04       3.90391e+02
  7.800      2.50063e+02       2.14984e+01       5.88386e+00       5.36622e-04       3.85123e+02
  7.900      2.49262e+02       2.21117e+01       5.80719e+00       5.31058e-04       3.79909e+02
  8.000      2.48473e+02       2.27837e+01       5.75368e+00       5.25506e-04       3.74747e+02
  8.100      2.47697e+02       2.35072e+01       5.71632e+00       5.19962e-04       3.69635e+02
  8.200      2.46939e+02       2.42721e+01       5.70410e+00       5.14418e-04       3.64576e+02
  8.300      2.46207e+02       2.50677e+01       5.72948e+00       5.08865e-04       3.59571e+02
  8.400      2.45506e+02       2.58834e+01       5.80490e+00       5.03292e-04       3.54621e+02
  8.500      2.44844e+02       2.67085e+01       5.94281e+00       4.97691e-04       3.49728e+02
  8.600      2.44223e+02       2.75332e+01       6.14372e+00       4.92058e-04       3.44893e+02
  8.700      2.43637e+02       2.83509e+01       6.36777e+00       4.86408e-04       3.40114e+02
  8.800      2.43077e+02       2.91553e+01       6.56654e+00       4.80760e-04       3.35392e+02
  8.900      2.42534e+02       2.99405e+01       6.69164e+00       4.75131e-04       3.30726e+02
  9.000      2.41999e+02       3.07002e+01       6.69466e+00       4.69540e-04       3.26114e+02
  9.100      2.41465e+02       3.14291e+01       6.53347e+00       4.64001e-04       3.21555e+02
  9.200      2.40930e+02       3.21275e+01       6.21922e+00       4.58516e-04       3.17050e+02
  9.300      2.40396e+02       3.27986e+01       5.78996e+00       4.53082e-04       3.12598e+02
  9.400      2.39864e+02       3.34456e+01       5.28400e+00       4.47695e-04       3.08198e+02
  9.500      2.39337e+02       3.40718e+01       4.73961e+00       4.42351e-04       3.03850e+02
  9.600      2.38817e+02       3.46804e+01       4.19508e+00       4.37047e-04       2.99554e+02
  9.700      2.38304e+02       3.52722e+01       3.68047e+00       4.31782e-04       2.95310e+02
  9.800      2.37793e+02       3.58409e+01       3.20176e+00       4.26564e-04       2.91116e+02
  9.900      2.37280e+02       3.63786e+01       2.76056e+00       4.21403e-04       2.86973e+02
 10.000      2.36759e+02       3.68777e+01       2.35845e+00       4.16307e-04       2.82880e+02
 10.100      2.36225e+02       3.73304e+01       1.99702e+00       4.11283e-04       2.78837e+02
 10.200      2.35674e+02       3.77291e+01       1.67788e+00       4.06341e-04       2.74842e+02
 10.300      2.35102e+02       3.80662e+01       1.40245e+00       4.01481e-04       2.70896e+02
 10.400      2.34519e+02       3.83349e+01       1.17161e+00       3.96688e-04       2.66999e+02
 10.500      2.33938e+02       3.85289e+01       9.86100e-01       3.91938e-04       2.63149e+02
 10.600      2.33371e+02       3.86414e+01       8.46680e-01       3.87213e-04       2.59345e+02
 10.700      2.32830e+02       3.86660e+01       7.54094e-01       3.82492e-04       2.55589e+02
 10.800      2.32326e+02       3.85961e+01       7.09091e-01       3.77756e-04       2.51879e+02
 10.900      2.31872e+02       3.84254e+01       7.12253e-01       3.72989e-04       2.48214e+02
 11.000      2.31466e+02       3.81551e+01       7.60098e-01       3.68194e-04       2.44594e+02
 11.100      2.31097e+02       3.77937e+01       8.44964e-01       3.63394e-04       2.41021e+02
 11.200      2.30749e+02       3.73502e+01       9.58997e-01       3.58614e-04       2.37492e+02
 11.300      2.30410e+02       3.68337e+01       1.09435e+00       3.53876e-04       2.34010e+02
 11.400      2.30065e+02       3.62530e+01       1.24316e+00       3.49201e-04       2.30573e+02
 11.500      2.29701e+02       3.56172e+01       1.39757e+00       3.44611e-04       2.27182e+02
 11.600      2.29305e+02       3.49352e+01       1.54975e+00       3.40123e-04       2.23837e+02
 11.700      2.28868e+02       3.42136e+01       1.69184e+00       3.35748e-04       2.20536e+02
 11.800      2.28395e+02       3.34553e+01       1.81604e+00       3.31476e-04       2.17280e+02
 11.900      2.27888e+02       3.26632e+01       1.91453e+00       3.27300e-04       2.14067e+02
 12.000      2.27351e+02       3.18399e+01       1.97952e+00       3.23211e-04       2.10894e+02
 12.100      2.26787e+02       3.09883e+01       2.00318e+00       3.19202e-04       2.07762e+02
 12.200      2.26201e+02       3.01109e+01       1.97771e+00       3.15265e-04       2.04669e+02
 12.300      2.25595e+02       2.92107e+01       1.89530e+00       3.11393e-04       2.01613e+02
 12.400      2.24972e+02       2.82905e+01       1.74885e+00       3.07578e-04       1.98595e+02
 12.500      2.24337e+02       2.73603e+01       1.55054e+00       3.03817e-04       1.95612e+02
 12.600      2.23692e+02       2.64377e+01       1.33353e+00       3.00104e-04       1.92665e+02
 12.700      2.23039e+02       2.55406e+01       1.13205e+00       2.96434e-04       1.89754e+02
 12.800      2.22381e+02       2.46868e+01       9.80322e-01       2.92805e-04       1.86878e+02
 12.900      2.21722e+02       2.38943e+01       9.12583e-01       2.89212e-04       1.84038e+02
 13.000      2.21062e+02       2.31810e+01       9.63057e-01       2.85652e-04       1.81231e+02
 13.100      2.20406e+02       2.25649e+01       1.16597e+00       2.82120e-04       1.78460e+02
 13.200      2.19757e+02       2.20638e+01       1.55555e+00       2.78615e-04       1.75723e+02
 13.300      2.19115e+02       2.16929e+01       2.16031e+00       2.75131e-04       1.73019e+02
 13.400      2.18484e+02       2.14430e+01       2.95617e+00       2.71669e-04       1.70350e+02
 13.500      2.17865e+02       2.12911e+01       3.89084e+00       2.68226e-04       1.67714e+02
 13.600      2.17260e+02       2.12147e+01       4.91168e+00       2.64801e-04       1.65113e+02
 13.700      2.16669e+02       2.11908e+01       5.96609e+00       2.61395e-04       1.62546e+02
 13.800      2.16094e+02       2.11967e+01       7.00147e+00       2.58006e-04       1.60013e+02
 13.900      2.15537e+02       2.12095e+01       7.96521e+00       2.54634e-04       1.57514e+02
 14.000      2.14999e+02       2.12065e+01       8.80471e+00       2.51276e-04       1.55049e+02
 14.100      2.14481e+02       2.11648e+01       9.46736e+00       2.47934e-04       1.52618e+02
 14.200      2.13985e+02       2.10617e+01       9.90054e+00       2.44606e-04       1.50222e+02
 14.300      2.13512e+02       2.08783e+01       1.00627e+01       2.41292e-04       1.47859e+02
 14.400      2.13062e+02       2.06169e+01       9.97083e+00       2.37991e-04       1.45529e+02
 14.500      2.12635e+02       2.02868e+01       9.66117e+00       2.34703e-04       1.43231e+02
 14.600      2.12231e+02       1.98971e+01       9.17000e+00       2.31429e-04       1.40964e+02
 14.700      2.11849e+02       1.94573e+01       8.53362e+00       2.28167e-04       1.38727e+02
 14.800      2.11489e+02       1.89765e+01       7.78831e+00       2.24919e-04       1.36519e+02
 14.900      2.11150e+02       1.84640e+01       6.97035e+00       2.21684e-04       1.34340e+02
 15.000      2.10833e+02       1.79290e+01       6.11603e+00       2.18462e-04       1.32189e+02
 15.100      2.10536e+02       1.73808e+01       5.26162e+00       2.15253e-04       1.30064e+02
 15.200      2.10261e+02       1.68287e+01       4.44343e+00       2.12057e-04       1.27966e+02
 15.300      2.10005e+02       1.62820e+01       3.69772e+00       2.08875e-04       1.25892e+02
 15.400      2.09770e+02       1.57494e+01       3.05936e+00       2.05707e-04       1.23844e+02
 15.500      2.09555e+02       1.52345e+01       2.53868e+00       2.02555e-04       1.21821e+02
 15.600      2.09359e+02       1.47358e+01       2.12538e+00       1.99422e-04       1.19825e+02
 15.700      2.09182e+02       1.42518e+01       1.80852e+00       1.96313e-04       1.17857e+02
 15.800      2.09025e+02       1.37811e+01       1.57712e+00       1.93229e-04       1.15918e+02
 15.900      2.08885e+02       1.33221e+01       1.42025e+00       1.90175e-04       1.14010e+02
 16.000      2.08765e+02       1.28733e+01       1.32696e+00       1.87153e-04       1.12133e+02
 16.100      2.08662e+02       1.24332e+01       1.28629e+00       1.84165e-04       1.10289e+02
 16.200      2.08576e+02       1.20003e+01       1.28729e+00       1.81215e-04       1.08478e+02
 16.300      2.08508e+02       1.15731e+01       1.31901e+00       1.78305e-04       1.06701e+02
 16.400      2.08457e+02       1.11501e+01       1.37050e+00       1.75437e-04       1.04959e+02
 16.500      2.08423e+02       1.07297e+01       1.43080e+00       1.72612e-04       1.03252e+02
 16.600      2.08405e+02       1.03106e+01       1.48898e+00       1.69833e-04       1.01581e+02
 16.700      2.08404e+02       9.89111e+00       1.53406e+00       1.67102e-04       9.99466e+01
 16.800      2.08418e+02       9.47021e+00       1.55746e+00       1.64419e-04       9.83485e+01
 16.900      2.08447e+02       9.04817e+00       1.55906e+00       1.61783e-04       9.67853e+01
 17.000      2.08491e+02       8.62565e+00       1.54066e+00       1.59192e-04       9.52556e+01
 17.100      2.08550e+02       8.20329e+00       1.50409e+00       1.56644e-04       9.37575e+01
 17.200      2.08623e+02       7.78171e+00       1.45114e+00       1.54138e-04       9.22897e+01
 17.300      2.08710e+02       7.36158e+00       1.38365e+00       1.51671e-04       9.08507e+01
 17.400      2.08809e+02       6.94351e+00       1.30341e+00       1.49243e-04       8.94390e+01
 17.500      2.08922e+02       6.52814e+00       1.21223e+00       1.46852e-04       8.80535e+01
 17.600      2.09046e+02       6.11613e+00       1.11194e+00       1.44497e-04       8.66927e+01
 17.700      2.09183e+02       5.70809e+00       1.00434e+00       1.42175e-04       8.53555e+01
 17.800      2.09331e+02       5.30469e+00       8.91244e-01       1.39886e-04       8.40407e+01
 17.900      2.09490e+02       4.90655e+00       7.74461e-01       1.37629e-04       8.27473e+01
 18.000      2.09659e+02       4.51430e+00       6.55805e-01       1.35402e-04       8.14741e+01
 18.100      2.09839e+02       4.12860e+00       5.37088e-01       1.33204e-04       8.02203e+01
 18.200      2.10028e+02       3.75007e+00       4.20121e-01       1.31034e-04       7.89847e+01
 18.300      2.10227e+02       3.37937e+00       3.06719e-01       1.28891e-04       7.77666e+01
 18.400      2.10434e+02       3.01711e+00       1.98688e-01       1.26775e-04       7.65650e+01
 18.500      2.10649e+02       2.66395e+00       9.78437e-02       1.24683e-04       7.53791e+01
 18.600      2.10873e+02       2.32052e+00       5.99678e-03       1.22617e-04       7.42082e+01
 18.700      2.11104e+02       1.98746e+00      -7.50408e-02       1.20573e-04       7.30514e+01
 18.800      2.11342e+02       1.66542e+00      -1.43456e-01       1.18553e-04       7.19082e+01
 18.900      2.11587e+02       1.35502e+00      -1.97440e-01       1.16554e-04       7.07778e+01
 19.000      2.11837e+02       1.05690e+00      -2.35193e-01       1.14577e-04       6.96596e+01
 19.100      2.12094e+02       7.71193e-01      -2.55968e-01       1.12621e-04       6.85534e+01
 19.200      2.12354e+02       4.97196e-01      -2.60768e-01       1.10688e-04       6.74596e+01
 19.300      2.12619e+02       2.34133e-01      -2.50765e-01       1.08779e-04       6.63789e+01
 19.400      2.12886e+02      -1.87850e-02      -2.27130e-01       1.06896e-04       6.53115e+01
 19.500      2.13156e+02      -2.62335e-01      -1.91034e-01       1.05038e-04       6.42580e+01
 19.600      2.13426e+02      -4.97298e-01      -1.43646e-01       1.03209e-04       6.32187e+01
 19.700      2.13696e+02      -7.24455e-01      -8.61394e-02       1.01408e-04       6.21939e+01
 19.800      2.13965e+02      -9.44582e-01      -1.96849e-02       9.96356e-05       6.11841e+01
 19.900      2.14232e+02      -1.15847e+00       5.45488e-02       9.78936e-05       6.01894e+01
 20.000      2.14496e+02      -1.36689e+00       1.35390e-01       9.61822e-05       5.92102e+01
 20.100      2.14757e+02      -1.57063e+00       2.21666e-01       9.45022e-05       5.82466e+01
 20.200      2.15012e+02      -1.77047e+00       3.12209e-01       9.28540e-05       5.72989e+01
 20.300      2.15263e+02      -1.96718e+00       4.05843e-01       9.12382e-05       5.63673e+01
