# Data Source: NASA MERRA (version 2)
# Model Time = 2011-10-28 18:00:00
# Location = [  39.1026,  -84.5123 ]
# Fields = [ Z(km), T(K), U(m/s), V(m/s), R(g/cm3), P(mbar) ]
# Ground Height = 0.165
  0.000      2.81993e+02      -1.66074e+00      -1.09057e+00       1.26213e-03       1.02147e+03
  0.100      2.81105e+02      -1.97743e+00      -1.22488e+00       1.25081e-03       1.00911e+03
  0.200      2.80237e+02      -2.26116e+00      -1.36654e+00       1.23954e-03       9.96939e+02
  0.300      2.79363e+02      -2.55603e+00      -1.50571e+00       1.22841e-03       9.84901e+02
  0.400      2.78453e+02      -2.90605e+00      -1.63258e+00       1.21749e-03       9.72966e+02
  0.500      2.77498e+02      -3.33162e+00      -1.73704e+00       1.20679e-03       9.61112e+02
  0.600      2.76533e+02      -3.79588e+00      -1.80830e+00       1.19619e-03       9.49355e+02
  0.700      2.75597e+02      -4.26937e+00      -1.83386e+00       1.18553e-03       9.37712e+02
  0.800      2.74734e+02      -4.77662e+00      -1.79569e+00       1.17462e-03       9.26177e+02
  0.900      2.73973e+02      -5.33609e+00      -1.68318e+00       1.16335e-03       9.14746e+02
  1.000      2.73268e+02      -5.87086e+00      -1.53249e+00       1.15191e-03       9.03420e+02
  1.100      2.72556e+02      -6.27917e+00      -1.39289e+00       1.14058e-03       8.92204e+02
  1.200      2.71831e+02      -6.53755e+00      -1.28487e+00       1.12939e-03       8.81100e+02
  1.300      2.71121e+02      -6.66927e+00      -1.21175e+00       1.11822e-03       8.70109e+02
  1.400      2.70453e+02      -6.69820e+00      -1.17664e+00       1.10697e-03       8.59229e+02
  1.500      2.69857e+02      -6.64821e+00      -1.18260e+00       1.09551e-03       8.48463e+02
  1.600      2.69348e+02      -6.53693e+00      -1.22759e+00       1.08380e-03       8.37811e+02
  1.700      2.68905e+02      -6.36570e+00      -1.29612e+00       1.07193e-03       8.27271e+02
  1.800      2.68506e+02      -6.13319e+00      -1.37050e+00       1.05999e-03       8.16845e+02
  1.900      2.68125e+02      -5.83810e+00      -1.43307e+00       1.04810e-03       8.06532e+02
  2.000      2.67739e+02      -5.47913e+00      -1.46630e+00       1.03634e-03       7.96332e+02
  2.100      2.67333e+02      -5.05617e+00      -1.46012e+00       1.02476e-03       7.86245e+02
  2.200      2.66913e+02      -4.57081e+00      -1.41516e+00       1.01335e-03       7.76269e+02
  2.300      2.66485e+02      -4.02474e+00      -1.33290e+00       1.00208e-03       7.66403e+02
  2.400      2.66054e+02      -3.41970e+00      -1.21483e+00       9.90924e-04       7.56646e+02
  2.500      2.65627e+02      -2.75733e+00      -1.06242e+00       9.79861e-04       7.46997e+02
  2.600      2.65217e+02      -2.03596e+00      -8.77617e-01       9.68841e-04       7.37456e+02
  2.700      2.64852e+02      -1.24848e+00      -6.63104e-01       9.57771e-04       7.28025e+02
  2.800      2.64560e+02      -3.87223e-01      -4.21638e-01       9.46558e-04       7.18709e+02
  2.900      2.64370e+02       5.55435e-01      -1.55974e-01       9.35113e-04       7.09509e+02
  3.000      2.64311e+02       1.58714e+00       1.31133e-01       9.23352e-04       7.00428e+02
  3.100      2.64399e+02       2.70998e+00       4.35010e-01       9.11235e-04       6.91469e+02
  3.200      2.64601e+02       3.90049e+00       7.42154e-01       8.98898e-04       6.82629e+02
  3.300      2.64868e+02       5.12781e+00       1.03651e+00       8.86520e-04       6.73907e+02
  3.400      2.65150e+02       6.36110e+00       1.30202e+00       8.74269e-04       6.65301e+02
  3.500      2.65398e+02       7.56951e+00       1.52263e+00       8.62305e-04       6.56811e+02
  3.600      2.65563e+02       8.72222e+00       1.68233e+00       8.50778e-04       6.48434e+02
  3.700      2.65613e+02       9.79756e+00       1.77544e+00       8.39774e-04       6.40167e+02
  3.800      2.65556e+02       1.07950e+01       1.82015e+00       8.29248e-04       6.32008e+02
  3.900      2.65406e+02       1.17169e+01       1.83799e+00       8.19137e-04       6.23950e+02
  4.000      2.65177e+02       1.25656e+01       1.85048e+00       8.09387e-04       6.15991e+02
  4.100      2.64883e+02       1.33436e+01       1.87917e+00       7.99941e-04       6.08127e+02
  4.200      2.64537e+02       1.40534e+01       1.94558e+00       7.90748e-04       6.00353e+02
  4.300      2.64152e+02       1.46978e+01       2.06869e+00       7.81762e-04       5.92666e+02
  4.400      2.63732e+02       1.52835e+01       2.25570e+00       7.72963e-04       5.85065e+02
  4.500      2.63283e+02       1.58175e+01       2.51044e+00       7.64336e-04       5.77549e+02
  4.600      2.62806e+02       1.63071e+01       2.83674e+00       7.55868e-04       5.70116e+02
  4.700      2.62306e+02       1.67597e+01       3.23843e+00       7.47545e-04       5.62766e+02
  4.800      2.61786e+02       1.71825e+01       3.71935e+00       7.39355e-04       5.55497e+02
  4.900      2.61249e+02       1.75828e+01       4.28327e+00       7.31286e-04       5.48308e+02
  5.000      2.60699e+02       1.79675e+01       4.92690e+00       7.23327e-04       5.41198e+02
  5.100      2.60136e+02       1.83431e+01       5.63267e+00       7.15475e-04       5.34167e+02
  5.200      2.59561e+02       1.87159e+01       6.38127e+00       7.07726e-04       5.27213e+02
  5.300      2.58974e+02       1.90923e+01       7.15343e+00       7.00075e-04       5.20335e+02
  5.400      2.58377e+02       1.94786e+01       7.92984e+00       6.92520e-04       5.13533e+02
  5.500      2.57770e+02       1.98811e+01       8.69122e+00       6.85056e-04       5.06805e+02
  5.600      2.57155e+02       2.03062e+01       9.41828e+00       6.77680e-04       5.00151e+02
  5.700      2.56531e+02       2.07594e+01       1.00950e+01       6.70390e-04       4.93570e+02
  5.800      2.55898e+02       2.12419e+01       1.07192e+01       6.63184e-04       4.87060e+02
  5.900      2.55254e+02       2.17542e+01       1.12926e+01       6.56064e-04       4.80619e+02
  6.000      2.54599e+02       2.22966e+01       1.18168e+01       6.49029e-04       4.74245e+02
  6.100      2.53931e+02       2.28695e+01       1.22935e+01       6.42080e-04       4.67936e+02
  6.200      2.53249e+02       2.34730e+01       1.27242e+01       6.35217e-04       4.61691e+02
  6.300      2.52552e+02       2.41077e+01       1.31106e+01       6.28441e-04       4.55509e+02
  6.400      2.51839e+02       2.47737e+01       1.34543e+01       6.21751e-04       4.49387e+02
  6.500      2.51109e+02       2.54679e+01       1.37604e+01       6.15147e-04       4.43325e+02
  6.600      2.50364e+02       2.61760e+01       1.40441e+01       6.08627e-04       4.37326e+02
  6.700      2.49607e+02       2.68819e+01       1.43226e+01       6.02189e-04       4.31391e+02
  6.800      2.48840e+02       2.75695e+01       1.46130e+01       5.95830e-04       4.25524e+02
  6.900      2.48065e+02       2.82226e+01       1.49323e+01       5.89547e-04       4.19726e+02
  7.000      2.47285e+02       2.88251e+01       1.52979e+01       5.83338e-04       4.13999e+02
  7.100      2.46502e+02       2.93609e+01       1.57266e+01       5.77201e-04       4.08346e+02
  7.200      2.45718e+02       2.98137e+01       1.62358e+01       5.71133e-04       4.02768e+02
  7.300      2.44936e+02       3.01680e+01       1.68416e+01       5.65131e-04       3.97267e+02
  7.400      2.44156e+02       3.04202e+01       1.75393e+01       5.59188e-04       3.91838e+02
  7.500      2.43379e+02       3.05790e+01       1.83033e+01       5.53290e-04       3.86471e+02
  7.600      2.42604e+02       3.06532e+01       1.91071e+01       5.47424e-04       3.81157e+02
  7.700      2.41831e+02       3.06522e+01       1.99239e+01       5.41579e-04       3.75885e+02
  7.800      2.41059e+02       3.05849e+01       2.07274e+01       5.35743e-04       3.70648e+02
  7.900      2.40288e+02       3.04604e+01       2.14908e+01       5.29904e-04       3.65436e+02
  8.000      2.39519e+02       3.02878e+01       2.21876e+01       5.24052e-04       3.60243e+02
  8.100      2.38750e+02       3.00762e+01       2.27914e+01       5.18177e-04       3.55061e+02
  8.200      2.37981e+02       2.98348e+01       2.32753e+01       5.12269e-04       3.49882e+02
  8.300      2.37213e+02       2.95728e+01       2.36205e+01       5.06328e-04       3.44708e+02
  8.400      2.36445e+02       2.93013e+01       2.38359e+01       5.00385e-04       3.39561e+02
  8.500      2.35680e+02       2.90311e+01       2.39369e+01       4.94479e-04       3.34466e+02
  8.600      2.34918e+02       2.87734e+01       2.39390e+01       4.88644e-04       3.29451e+02
  8.700      2.34160e+02       2.85394e+01       2.38578e+01       4.82915e-04       3.24538e+02
  8.800      2.33408e+02       2.83401e+01       2.37087e+01       4.77324e-04       3.19750e+02
  8.900      2.32662e+02       2.81866e+01       2.35073e+01       4.71901e-04       3.15108e+02
  9.000      2.31924e+02       2.80901e+01       2.32689e+01       4.66677e-04       3.10630e+02
  9.100      2.31194e+02       2.80615e+01       2.30092e+01       4.61679e-04       3.06337e+02
  9.200      2.30474e+02       2.81121e+01       2.27437e+01       4.56935e-04       3.02244e+02
  9.300      2.29764e+02       2.82526e+01       2.24875e+01       4.52468e-04       2.98368e+02
  9.400      2.29066e+02       2.84864e+01       2.22493e+01       4.48277e-04       2.94706e+02
  9.500      2.28379e+02       2.88071e+01       2.20297e+01       4.44329e-04       2.91234e+02
  9.600      2.27703e+02       2.92083e+01       2.18287e+01       4.40589e-04       2.87929e+02
  9.700      2.27040e+02       2.96832e+01       2.16464e+01       4.37025e-04       2.84767e+02
  9.800      2.26388e+02       3.02251e+01       2.14827e+01       4.33606e-04       2.81728e+02
  9.900      2.25747e+02       3.08275e+01       2.13378e+01       4.30301e-04       2.78790e+02
 10.000      2.25119e+02       3.14836e+01       2.12117e+01       4.27081e-04       2.75934e+02
 10.100      2.24503e+02       3.21868e+01       2.11044e+01       4.23917e-04       2.73140e+02
 10.200      2.23899e+02       3.29304e+01       2.10161e+01       4.20781e-04       2.70390e+02
 10.300      2.23308e+02       3.37078e+01       2.09467e+01       4.17646e-04       2.67667e+02
 10.400      2.22729e+02       3.45123e+01       2.08963e+01       4.14487e-04       2.64953e+02
 10.500      2.22162e+02       3.53372e+01       2.08650e+01       4.11277e-04       2.62233e+02
 10.600      2.21608e+02       3.61759e+01       2.08528e+01       4.07992e-04       2.59490e+02
 10.700      2.21067e+02       3.70217e+01       2.08598e+01       4.04610e-04       2.56710e+02
 10.800      2.20539e+02       3.78680e+01       2.08860e+01       4.01106e-04       2.53878e+02
 10.900      2.20024e+02       3.87081e+01       2.09314e+01       3.97459e-04       2.50982e+02
 11.000      2.19521e+02       3.95354e+01       2.09959e+01       3.93650e-04       2.48010e+02
 11.100      2.19033e+02       4.03449e+01       2.10761e+01       3.89673e-04       2.44958e+02
 11.200      2.18560e+02       4.11320e+01       2.11668e+01       3.85533e-04       2.41832e+02
 11.300      2.18103e+02       4.18926e+01       2.12626e+01       3.81234e-04       2.38635e+02
 11.400      2.17663e+02       4.26223e+01       2.13582e+01       3.76780e-04       2.35372e+02
 11.500      2.17241e+02       4.33168e+01       2.14482e+01       3.72178e-04       2.32046e+02
 11.600      2.16839e+02       4.39719e+01       2.15274e+01       3.67431e-04       2.28662e+02
 11.700      2.16457e+02       4.45832e+01       2.15903e+01       3.62545e-04       2.25225e+02
 11.800      2.16098e+02       4.51463e+01       2.16317e+01       3.57526e-04       2.21738e+02
 11.900      2.15761e+02       4.56571e+01       2.16462e+01       3.52380e-04       2.18205e+02
 12.000      2.15448e+02       4.61111e+01       2.16285e+01       3.47112e-04       2.14632e+02
 12.100      2.15160e+02       4.65042e+01       2.15732e+01       3.41729e-04       2.11021e+02
 12.200      2.14898e+02       4.68319e+01       2.14750e+01       3.36238e-04       2.07377e+02
 12.300      2.14664e+02       4.70900e+01       2.13287e+01       3.30644e-04       2.03705e+02
 12.400      2.14458e+02       4.72742e+01       2.11288e+01       3.24954e-04       2.00008e+02
 12.500      2.14281e+02       4.73815e+01       2.08719e+01       3.19180e-04       1.96291e+02
 12.600      2.14131e+02       4.74148e+01       2.05624e+01       3.13344e-04       1.92568e+02
 12.700      2.14006e+02       4.73783e+01       2.02064e+01       3.07474e-04       1.88850e+02
 12.800      2.13904e+02       4.72761e+01       1.98102e+01       3.01596e-04       1.85151e+02
 12.900      2.13821e+02       4.71126e+01       1.93801e+01       2.95731e-04       1.81481e+02
 13.000      2.13756e+02       4.68919e+01       1.89223e+01       2.89904e-04       1.77850e+02
 13.100      2.13706e+02       4.66182e+01       1.84429e+01       2.84133e-04       1.74269e+02
 13.200      2.13669e+02       4.62958e+01       1.79483e+01       2.78438e-04       1.70747e+02
 13.300      2.13642e+02       4.59288e+01       1.74447e+01       2.72837e-04       1.67290e+02
 13.400      2.13623e+02       4.55215e+01       1.69383e+01       2.67345e-04       1.63908e+02
 13.500      2.13609e+02       4.50781e+01       1.64354e+01       2.61977e-04       1.60607e+02
 13.600      2.13598e+02       4.46029e+01       1.59421e+01       2.56746e-04       1.57392e+02
 13.700      2.13588e+02       4.40999e+01       1.54648e+01       2.51665e-04       1.54270e+02
 13.800      2.13576e+02       4.35735e+01       1.50096e+01       2.46744e-04       1.51246e+02
 13.900      2.13561e+02       4.30277e+01       1.45826e+01       2.41993e-04       1.48322e+02
 14.000      2.13540e+02       4.24652e+01       1.41856e+01       2.37411e-04       1.45500e+02
 14.100      2.13514e+02       4.18871e+01       1.38172e+01       2.32988e-04       1.42772e+02
 14.200      2.13484e+02       4.12948e+01       1.34759e+01       2.28717e-04       1.40135e+02
 14.300      2.13450e+02       4.06896e+01       1.31602e+01       2.24587e-04       1.37583e+02
 14.400      2.13412e+02       4.00725e+01       1.28685e+01       2.20593e-04       1.35112e+02
 14.500      2.13371e+02       3.94450e+01       1.25993e+01       2.16726e-04       1.32718e+02
 14.600      2.13327e+02       3.88082e+01       1.23510e+01       2.12979e-04       1.30396e+02
 14.700      2.13280e+02       3.81634e+01       1.21222e+01       2.09346e-04       1.28144e+02
 14.800      2.13231e+02       3.75119e+01       1.19112e+01       2.05820e-04       1.25956e+02
 14.900      2.13179e+02       3.68549e+01       1.17167e+01       2.02396e-04       1.23831e+02
 15.000      2.13126e+02       3.61936e+01       1.15370e+01       1.99067e-04       1.21764e+02
 15.100      2.13071e+02       3.55293e+01       1.13706e+01       1.95829e-04       1.19752e+02
 15.200      2.13015e+02       3.48633e+01       1.12159e+01       1.92675e-04       1.17793e+02
 15.300      2.12958e+02       3.41967e+01       1.10716e+01       1.89602e-04       1.15883e+02
 15.400      2.12901e+02       3.35309e+01       1.09359e+01       1.86604e-04       1.14020e+02
 15.500      2.12844e+02       3.28671e+01       1.08074e+01       1.83677e-04       1.12201e+02
 15.600      2.12786e+02       3.22065e+01       1.06846e+01       1.80817e-04       1.10424e+02
 15.700      2.12730e+02       3.15504e+01       1.05659e+01       1.78019e-04       1.08687e+02
 15.800      2.12674e+02       3.09001e+01       1.04499e+01       1.75280e-04       1.06986e+02
 15.900      2.12619e+02       3.02567e+01       1.03348e+01       1.72597e-04       1.05321e+02
 16.000      2.12565e+02       2.96216e+01       1.02194e+01       1.69965e-04       1.03689e+02
 16.100      2.12514e+02       2.89960e+01       1.01019e+01       1.67381e-04       1.02088e+02
 16.200      2.12464e+02       2.83811e+01       9.98094e+00       1.64843e-04       1.00516e+02
 16.300      2.12417e+02       2.77782e+01       9.85499e+00       1.62347e-04       9.89725e+01
 16.400      2.12372e+02       2.71876e+01       9.72357e+00       1.59891e-04       9.74548e+01
 16.500      2.12330e+02       2.66095e+01       9.58682e+00       1.57474e-04       9.59626e+01
 16.600      2.12291e+02       2.60440e+01       9.44485e+00       1.55094e-04       9.44949e+01
 16.700      2.12254e+02       2.54910e+01       9.29779e+00       1.52750e-04       9.30508e+01
 16.800      2.12220e+02       2.49505e+01       9.14579e+00       1.50441e-04       9.16296e+01
 16.900      2.12189e+02       2.44227e+01       8.98895e+00       1.48165e-04       9.02303e+01
 17.000      2.12161e+02       2.39075e+01       8.82743e+00       1.45922e-04       8.88524e+01
 17.100      2.12136e+02       2.34051e+01       8.66133e+00       1.43710e-04       8.74949e+01
 17.200      2.12114e+02       2.29153e+01       8.49080e+00       1.41528e-04       8.61573e+01
 17.300      2.12094e+02       2.24384e+01       8.31597e+00       1.39375e-04       8.48388e+01
 17.400      2.12078e+02       2.19742e+01       8.13696e+00       1.37250e-04       8.35388e+01
 17.500      2.12065e+02       2.15229e+01       7.95390e+00       1.35151e-04       8.22567e+01
 17.600      2.12055e+02       2.10845e+01       7.76693e+00       1.33079e-04       8.09919e+01
 17.700      2.12048e+02       2.06590e+01       7.57617e+00       1.31033e-04       7.97438e+01
 17.800      2.12045e+02       2.02465e+01       7.38176e+00       1.29011e-04       7.85118e+01
 17.900      2.12045e+02       1.98470e+01       7.18381e+00       1.27012e-04       7.72955e+01
 18.000      2.12048e+02       1.94605e+01       6.98247e+00       1.25036e-04       7.60944e+01
 18.100      2.12055e+02       1.90871e+01       6.77786e+00       1.23083e-04       7.49079e+01
 18.200      2.12065e+02       1.87268e+01       6.57011e+00       1.21151e-04       7.37357e+01
 18.300      2.12078e+02       1.83797e+01       6.35936e+00       1.19240e-04       7.25773e+01
 18.400      2.12096e+02       1.80458e+01       6.14572e+00       1.17349e-04       7.14322e+01
 18.500      2.12116e+02       1.77251e+01       5.92934e+00       1.15478e-04       7.03002e+01
 18.600      2.12141e+02       1.74176e+01       5.71037e+00       1.13626e-04       6.91808e+01
 18.700      2.12169e+02       1.71230e+01       5.48936e+00       1.11794e-04       6.80743e+01
 18.800      2.12201e+02       1.68406e+01       5.26705e+00       1.09982e-04       6.69811e+01
 18.900      2.12237e+02       1.65698e+01       5.04416e+00       1.08191e-04       6.59015e+01
 19.000      2.12276e+02       1.63100e+01       4.82142e+00       1.06422e-04       6.48359e+01
 19.100      2.12320e+02       1.60605e+01       4.59959e+00       1.04675e-04       6.37847e+01
 19.200      2.12367e+02       1.58209e+01       4.37939e+00       1.02951e-04       6.27481e+01
 19.300      2.12418e+02       1.55904e+01       4.16155e+00       1.01251e-04       6.17264e+01
 19.400      2.12473e+02       1.53684e+01       3.94682e+00       9.95738e-05       6.07198e+01
 19.500      2.12532e+02       1.51544e+01       3.73593e+00       9.79212e-05       5.97286e+01
 19.600      2.12594e+02       1.49477e+01       3.52961e+00       9.62932e-05       5.87529e+01
 19.700      2.12661e+02       1.47477e+01       3.32860e+00       9.46902e-05       5.77930e+01
 19.800      2.12732e+02       1.45538e+01       3.13364e+00       9.31124e-05       5.68489e+01
 19.900      2.12807e+02       1.43654e+01       2.94546e+00       9.15600e-05       5.59208e+01
 20.000      2.12886e+02       1.41819e+01       2.76480e+00       9.00333e-05       5.50087e+01
 20.100      2.12969e+02       1.40026e+01       2.59239e+00       8.85326e-05       5.41129e+01
 20.200      2.13056e+02       1.38270e+01       2.42896e+00       8.70578e-05       5.32332e+01
 20.300      2.13147e+02       1.36544e+01       2.27526e+00       8.56092e-05       5.23698e+01
