# Data Source: NASA MERRA (version 1)
# Model Time = 2010-03-22 18:00:00
# Location = [  39.7393, -104.9900 ]
# Fields = [ Z(km), T(K), U(m/s), V(m/s), R(g/cm3), P(mbar) ]
# Ground Height = 1.589
  0.000      2.97884e+02       1.93937e+00       4.37371e-01       1.17886e-03       1.00784e+03
  0.100      2.97250e+02       1.92803e+00       4.20699e-01       1.16758e-03       9.96068e+02
  0.200      2.96615e+02       1.92294e+00       4.04256e-01       1.15641e-03       9.84430e+02
  0.300      2.95976e+02       1.94269e+00       3.88708e-01       1.14535e-03       9.72920e+02
  0.400      2.95328e+02       1.99113e+00       3.71550e-01       1.13443e-03       9.61532e+02
  0.500      2.94667e+02       2.03740e+00       3.42815e-01       1.12365e-03       9.50263e+02
  0.600      2.93989e+02       2.05411e+00       2.99334e-01       1.11302e-03       9.39113e+02
  0.700      2.93310e+02       2.04991e+00       2.71715e-01       1.10250e-03       9.28084e+02
  0.800      2.92645e+02       2.04146e+00       2.95541e-01       1.09202e-03       9.17180e+02
  0.900      2.91997e+02       2.02914e+00       3.66862e-01       1.08158e-03       9.06399e+02
  1.000      2.91358e+02       2.00433e+00       4.59727e-01       1.07120e-03       8.95734e+02
  1.100      2.90720e+02       1.96392e+00       5.55376e-01       1.06090e-03       8.85180e+02
  1.200      2.90074e+02       1.91203e+00       6.44670e-01       1.05072e-03       8.74741e+02
  1.300      2.89411e+02       1.85327e+00       7.19111e-01       1.04070e-03       8.64415e+02
  1.400      2.88722e+02       1.79225e+00       7.70202e-01       1.03086e-03       8.54205e+02
  1.500      2.87997e+02       1.73372e+00       7.89681e-01       1.02124e-03       8.44110e+02
  1.600      2.87232e+02       1.68509e+00       7.73029e-01       1.01185e-03       8.34128e+02
  1.700      2.86427e+02       1.65589e+00       7.18730e-01       1.00268e-03       8.24251e+02
  1.800      2.85579e+02       1.65570e+00       6.25350e-01       9.93729e-04       8.14473e+02
  1.900      2.84688e+02       1.69408e+00       4.91454e-01       9.84984e-04       8.04786e+02
  2.000      2.83753e+02       1.78010e+00       3.16101e-01       9.76441e-04       7.95187e+02
  2.100      2.82782e+02       1.91110e+00       1.09508e-01       9.68068e-04       7.85670e+02
  2.200      2.81791e+02       2.07272e+00      -1.07024e-01       9.59809e-04       7.76236e+02
  2.300      2.80797e+02       2.25013e+00      -3.11715e-01       9.51605e-04       7.66885e+02
  2.400      2.79815e+02       2.42851e+00      -4.82785e-01       9.43402e-04       7.57617e+02
  2.500      2.78863e+02       2.59303e+00      -5.98484e-01       9.35145e-04       7.48432e+02
  2.600      2.77950e+02       2.73557e+00      -6.45856e-01       9.26807e-04       7.39328e+02
  2.700      2.77063e+02       2.86419e+00      -6.33227e-01       9.18428e-04       7.30307e+02
  2.800      2.76189e+02       2.98933e+00      -5.72073e-01       9.10055e-04       7.21367e+02
  2.900      2.75314e+02       3.12147e+00      -4.73871e-01       9.01736e-04       7.12508e+02
  3.000      2.74424e+02       3.27103e+00      -3.50101e-01       8.93516e-04       7.03729e+02
  3.100      2.73505e+02       3.44822e+00      -2.11989e-01       8.85436e-04       6.95030e+02
  3.200      2.72558e+02       3.65851e+00      -6.65677e-02       8.77493e-04       6.86411e+02
  3.300      2.71596e+02       3.90351e+00       8.25963e-02       8.69643e-04       6.77870e+02
  3.400      2.70632e+02       4.18472e+00       2.32044e-01       8.61845e-04       6.69407e+02
  3.500      2.69679e+02       4.50364e+00       3.78315e-01       8.54057e-04       6.61022e+02
  3.600      2.68749e+02       4.86176e+00       5.17949e-01       8.46238e-04       6.52713e+02
  3.700      2.67855e+02       5.26022e+00       6.47215e-01       8.38353e-04       6.44480e+02
  3.800      2.66998e+02       5.69617e+00       7.59276e-01       8.30399e-04       6.36323e+02
  3.900      2.66173e+02       6.16416e+00       8.45318e-01       8.22398e-04       6.28242e+02
  4.000      2.65372e+02       6.65875e+00       8.96495e-01       8.14370e-04       6.20239e+02
  4.100      2.64591e+02       7.17445e+00       9.03962e-01       8.06335e-04       6.12312e+02
  4.200      2.63824e+02       7.70581e+00       8.58874e-01       7.98313e-04       6.04464e+02
  4.300      2.63066e+02       8.24760e+00       7.52571e-01       7.90323e-04       5.96692e+02
  4.400      2.62313e+02       8.80229e+00       5.82613e-01       7.82372e-04       5.88999e+02
  4.500      2.61569e+02       9.38173e+00       3.54092e-01       7.74453e-04       5.81383e+02
  4.600      2.60835e+02       9.99830e+00       7.25479e-02       7.66561e-04       5.73846e+02
  4.700      2.60116e+02       1.06644e+01      -2.56477e-01       7.58687e-04       5.66385e+02
  4.800      2.59413e+02       1.13924e+01      -6.27445e-01       7.50826e-04       5.59002e+02
  4.900      2.58730e+02       1.21948e+01      -1.03481e+00       7.42971e-04       5.51697e+02
  5.000      2.58068e+02       1.30808e+01      -1.47193e+00       7.35118e-04       5.44468e+02
  5.100      2.57424e+02       1.40352e+01      -1.92313e+00       7.27275e-04       5.37316e+02
  5.200      2.56796e+02       1.50304e+01      -2.36825e+00       7.19454e-04       5.30241e+02
  5.300      2.56178e+02       1.60388e+01      -2.78714e+00       7.11669e-04       5.23242e+02
  5.400      2.55567e+02       1.70326e+01      -3.15961e+00       7.03933e-04       5.16319e+02
  5.500      2.54957e+02       1.79843e+01      -3.46548e+00       6.96258e-04       5.09471e+02
  5.600      2.54345e+02       1.88662e+01      -3.68459e+00       6.88655e-04       5.02698e+02
  5.700      2.53727e+02       1.96519e+01      -3.79805e+00       6.81135e-04       4.96000e+02
  5.800      2.53099e+02       2.03326e+01      -3.80624e+00       6.73706e-04       4.89375e+02
  5.900      2.52460e+02       2.09132e+01      -3.72447e+00       6.66368e-04       4.82823e+02
  6.000      2.51808e+02       2.13989e+01      -3.56841e+00       6.59126e-04       4.76343e+02
  6.100      2.51142e+02       2.17950e+01      -3.35375e+00       6.51980e-04       4.69933e+02
  6.200      2.50460e+02       2.21066e+01      -3.09618e+00       6.44934e-04       4.63592e+02
  6.300      2.49761e+02       2.23392e+01      -2.81136e+00       6.37989e-04       4.57319e+02
  6.400      2.49042e+02       2.24979e+01      -2.51499e+00       6.31148e-04       4.51114e+02
  6.500      2.48304e+02       2.25886e+01      -2.22122e+00       6.24411e-04       4.44975e+02
  6.600      2.47546e+02       2.26219e+01      -1.93355e+00       6.17773e-04       4.38901e+02
  6.700      2.46773e+02       2.26103e+01      -1.65094e+00       6.11223e-04       4.32892e+02
  6.800      2.45988e+02       2.25665e+01      -1.37237e+00       6.04754e-04       4.26947e+02
  6.900      2.45193e+02       2.25029e+01      -1.09680e+00       5.98357e-04       4.21066e+02
  7.000      2.44391e+02       2.24321e+01      -8.23175e-01       5.92023e-04       4.15247e+02
  7.100      2.43586e+02       2.23668e+01      -5.50472e-01       5.85745e-04       4.09490e+02
  7.200      2.42781e+02       2.23193e+01      -2.77646e-01       5.79514e-04       4.03794e+02
  7.300      2.41978e+02       2.23023e+01      -3.67329e-03       5.73323e-04       3.98159e+02
  7.400      2.41179e+02       2.23223e+01       2.71492e-01       5.67169e-04       3.92584e+02
  7.500      2.40383e+02       2.23772e+01       5.46364e-01       5.61052e-04       3.87069e+02
  7.600      2.39589e+02       2.24639e+01       8.19323e-01       5.54977e-04       3.81613e+02
  7.700      2.38796e+02       2.25794e+01       1.08875e+00       5.48945e-04       3.76216e+02
  7.800      2.38003e+02       2.27204e+01       1.35302e+00       5.42958e-04       3.70878e+02
  7.900      2.37209e+02       2.28840e+01       1.61051e+00       5.37019e-04       3.65598e+02
  8.000      2.36413e+02       2.30671e+01       1.85961e+00       5.31131e-04       3.60376e+02
  8.100      2.35614e+02       2.32667e+01       2.09869e+00       5.25294e-04       3.55211e+02
  8.200      2.34811e+02       2.34796e+01       2.32614e+00       5.19511e-04       3.50102e+02
  8.300      2.34002e+02       2.37031e+01       2.54088e+00       5.13784e-04       3.45051e+02
  8.400      2.33190e+02       2.39354e+01       2.74422e+00       5.08110e-04       3.40055e+02
  8.500      2.32375e+02       2.41753e+01       2.93810e+00       5.02485e-04       3.35116e+02
  8.600      2.31560e+02       2.44212e+01       3.12445e+00       4.96905e-04       3.30231e+02
  8.700      2.30744e+02       2.46719e+01       3.30520e+00       4.91369e-04       3.25402e+02
  8.800      2.29931e+02       2.49259e+01       3.48229e+00       4.85872e-04       3.20627e+02
  8.900      2.29120e+02       2.51819e+01       3.65765e+00       4.80411e-04       3.15906e+02
  9.000      2.28314e+02       2.54384e+01       3.83320e+00       4.74984e-04       3.11239e+02
  9.100      2.27515e+02       2.56942e+01       4.01090e+00       4.69588e-04       3.06625e+02
  9.200      2.26722e+02       2.59478e+01       4.19265e+00       4.64219e-04       3.02064e+02
  9.300      2.25939e+02       2.61977e+01       4.38021e+00       4.58876e-04       2.97556e+02
  9.400      2.25164e+02       2.64426e+01       4.57147e+00       4.53558e-04       2.93099e+02
  9.500      2.24397e+02       2.66805e+01       4.76090e+00       4.48269e-04       2.88694e+02
  9.600      2.23637e+02       2.69097e+01       4.94286e+00       4.43010e-04       2.84341e+02
  9.700      2.22881e+02       2.71285e+01       5.11171e+00       4.37786e-04       2.80038e+02
  9.800      2.22129e+02       2.73351e+01       5.26181e+00       4.32597e-04       2.75785e+02
  9.900      2.21379e+02       2.75277e+01       5.38752e+00       4.27448e-04       2.71582e+02
 10.000      2.20630e+02       2.77047e+01       5.48319e+00       4.22339e-04       2.67428e+02
 10.100      2.19880e+02       2.78641e+01       5.54319e+00       4.17274e-04       2.63323e+02
 10.200      2.19129e+02       2.80044e+01       5.56187e+00       4.12254e-04       2.59267e+02
 10.300      2.18375e+02       2.81236e+01       5.53359e+00       4.07282e-04       2.55259e+02
 10.400      2.17617e+02       2.82201e+01       5.45270e+00       4.02360e-04       2.51298e+02
 10.500      2.16853e+02       2.82924e+01       5.31417e+00       3.97489e-04       2.47385e+02
 10.600      2.16089e+02       2.83423e+01       5.11974e+00       3.92662e-04       2.43519e+02
 10.700      2.15332e+02       2.83738e+01       4.87557e+00       3.87866e-04       2.39702e+02
 10.800      2.14589e+02       2.83910e+01       4.58784e+00       3.83088e-04       2.35933e+02
 10.900      2.13869e+02       2.83978e+01       4.26275e+00       3.78317e-04       2.32213e+02
 11.000      2.13179e+02       2.83982e+01       3.90652e+00       3.73542e-04       2.28543e+02
 11.100      2.12528e+02       2.83963e+01       3.52533e+00       3.68752e-04       2.24922e+02
 11.200      2.11922e+02       2.83961e+01       3.12539e+00       3.63936e-04       2.21352e+02
 11.300      2.11370e+02       2.84016e+01       2.71290e+00       3.59084e-04       2.17831e+02
 11.400      2.10879e+02       2.84168e+01       2.29406e+00       3.54186e-04       2.14362e+02
 11.500      2.10458e+02       2.84458e+01       1.87508e+00       3.49235e-04       2.10943e+02
 11.600      2.10114e+02       2.84924e+01       1.46214e+00       3.44223e-04       2.07575e+02
 11.700      2.09854e+02       2.85609e+01       1.06146e+00       3.39141e-04       2.04258e+02
 11.800      2.09687e+02       2.86551e+01       6.79239e-01       3.33983e-04       2.00992e+02
 11.900      2.09620e+02       2.87784e+01       3.21270e-01       3.28747e-04       1.97777e+02
 12.000      2.09649e+02       2.89284e+01      -1.09006e-02       3.23442e-04       1.94612e+02
 12.100      2.09765e+02       2.90987e+01      -3.18280e-01       3.18089e-04       1.91498e+02
 12.200      2.09960e+02       2.92829e+01      -6.01908e-01       3.12709e-04       1.88433e+02
 12.300      2.10223e+02       2.94749e+01      -8.62834e-01       3.07319e-04       1.85418e+02
 12.400      2.10547e+02       2.96681e+01      -1.10210e+00       3.01937e-04       1.82452e+02
 12.500      2.10922e+02       2.98564e+01      -1.32074e+00       2.96581e-04       1.79534e+02
 12.600      2.11339e+02       3.00334e+01      -1.51981e+00       2.91265e-04       1.76665e+02
 12.700      2.11789e+02       3.01928e+01      -1.70035e+00       2.86003e-04       1.73843e+02
 12.800      2.12263e+02       3.03283e+01      -1.86340e+00       2.80810e-04       1.71068e+02
 12.900      2.12751e+02       3.04335e+01      -2.01001e+00       2.75698e-04       1.68340e+02
 13.000      2.13245e+02       3.05021e+01      -2.14122e+00       2.70677e-04       1.65658e+02
 13.100      2.13735e+02       3.05278e+01      -2.25806e+00       2.65759e-04       1.63022e+02
 13.200      2.14213e+02       3.05042e+01      -2.36160e+00       2.60952e-04       1.60431e+02
 13.300      2.14669e+02       3.04252e+01      -2.45286e+00       2.56264e-04       1.57884e+02
 13.400      2.15095e+02       3.02842e+01      -2.53290e+00       2.51704e-04       1.55382e+02
 13.500      2.15480e+02       3.00751e+01      -2.60275e+00       2.47278e-04       1.52924e+02
 13.600      2.15817e+02       2.97915e+01      -2.66346e+00       2.42993e-04       1.50508e+02
 13.700      2.16096e+02       2.94280e+01      -2.71604e+00       2.38853e-04       1.48136e+02
 13.800      2.16318e+02       2.89874e+01      -2.76112e+00       2.34853e-04       1.45805e+02
 13.900      2.16486e+02       2.84757e+01      -2.79921e+00       2.30984e-04       1.43514e+02
 14.000      2.16603e+02       2.78994e+01      -2.83079e+00       2.27238e-04       1.41263e+02
 14.100      2.16673e+02       2.72645e+01      -2.85637e+00       2.23607e-04       1.39050e+02
 14.200      2.16698e+02       2.65775e+01      -2.87643e+00       2.20084e-04       1.36875e+02
 14.300      2.16681e+02       2.58445e+01      -2.89147e+00       2.16661e-04       1.34736e+02
 14.400      2.16627e+02       2.50718e+01      -2.90197e+00       2.13333e-04       1.32633e+02
 14.500      2.16538e+02       2.42657e+01      -2.90843e+00       2.10092e-04       1.30565e+02
 14.600      2.16418e+02       2.34325e+01      -2.91135e+00       2.06932e-04       1.28530e+02
 14.700      2.16270e+02       2.25783e+01      -2.91122e+00       2.03849e-04       1.26528e+02
 14.800      2.16096e+02       2.17095e+01      -2.90852e+00       2.00837e-04       1.24558e+02
 14.900      2.15901e+02       2.08323e+01      -2.90375e+00       1.97890e-04       1.22620e+02
 15.000      2.15688e+02       1.99530e+01      -2.89741e+00       1.95003e-04       1.20712e+02
 15.100      2.15459e+02       1.90778e+01      -2.88998e+00       1.92173e-04       1.18834e+02
 15.200      2.15218e+02       1.82130e+01      -2.88196e+00       1.89395e-04       1.16985e+02
 15.300      2.14969e+02       1.73649e+01      -2.87385e+00       1.86663e-04       1.15164e+02
 15.400      2.14714e+02       1.65397e+01      -2.86612e+00       1.83975e-04       1.13371e+02
 15.500      2.14457e+02       1.57437e+01      -2.85929e+00       1.81326e-04       1.11605e+02
 15.600      2.14201e+02       1.49831e+01      -2.85383e+00       1.78713e-04       1.09865e+02
 15.700      2.13949e+02       1.42642e+01      -2.85024e+00       1.76133e-04       1.08152e+02
 15.800      2.13705e+02       1.35932e+01      -2.84902e+00       1.73581e-04       1.06463e+02
 15.900      2.13472e+02       1.29765e+01      -2.85066e+00       1.71055e-04       1.04799e+02
 16.000      2.13252e+02       1.24203e+01      -2.85564e+00       1.68552e-04       1.03159e+02
 16.100      2.13050e+02       1.19308e+01      -2.86446e+00       1.66068e-04       1.01543e+02
 16.200      2.12868e+02       1.15142e+01      -2.87762e+00       1.63602e-04       9.99497e+01
 16.300      2.12710e+02       1.11748e+01      -2.89549e+00       1.61151e-04       9.83791e+01
 16.400      2.12574e+02       1.09082e+01      -2.91797e+00       1.58717e-04       9.68309e+01
 16.500      2.12459e+02       1.07085e+01      -2.94488e+00       1.56300e-04       9.53049e+01
 16.600      2.12365e+02       1.05697e+01      -2.97604e+00       1.53901e-04       9.38011e+01
 16.700      2.12291e+02       1.04859e+01      -3.01127e+00       1.51523e-04       9.23192e+01
 16.800      2.12235e+02       1.04510e+01      -3.05036e+00       1.49166e-04       9.08593e+01
 16.900      2.12196e+02       1.04591e+01      -3.09314e+00       1.46832e-04       8.94209e+01
 17.000      2.12174e+02       1.05042e+01      -3.13943e+00       1.44521e-04       8.80041e+01
 17.100      2.12166e+02       1.05804e+01      -3.18903e+00       1.42234e-04       8.66087e+01
 17.200      2.12174e+02       1.06816e+01      -3.24176e+00       1.39972e-04       8.52344e+01
 17.300      2.12194e+02       1.08018e+01      -3.29744e+00       1.37737e-04       8.38811e+01
 17.400      2.12226e+02       1.09351e+01      -3.35587e+00       1.35528e-04       8.25487e+01
 17.500      2.12270e+02       1.10755e+01      -3.41687e+00       1.33347e-04       8.12369e+01
 17.600      2.12324e+02       1.12170e+01      -3.48026e+00       1.31194e-04       7.99455e+01
 17.700      2.12386e+02       1.13536e+01      -3.54585e+00       1.29070e-04       7.86745e+01
 17.800      2.12457e+02       1.14794e+01      -3.61344e+00       1.26975e-04       7.74235e+01
 17.900      2.12535e+02       1.15883e+01      -3.68287e+00       1.24911e-04       7.61923e+01
 18.000      2.12618e+02       1.16745e+01      -3.75393e+00       1.22876e-04       7.49808e+01
 18.100      2.12707e+02       1.17318e+01      -3.82645e+00       1.20872e-04       7.37888e+01
 18.200      2.12799e+02       1.17543e+01      -3.90024e+00       1.18900e-04       7.26161e+01
 18.300      2.12894e+02       1.17361e+01      -3.97510e+00       1.16959e-04       7.14624e+01
 18.400      2.12991e+02       1.16712e+01      -4.05087e+00       1.15049e-04       7.03276e+01
 18.500      2.13088e+02       1.15541e+01      -4.12732e+00       1.13171e-04       6.92115e+01
 18.600      2.13186e+02       1.13854e+01      -4.20408e+00       1.11325e-04       6.81136e+01
 18.700      2.13284e+02       1.11689e+01      -4.28065e+00       1.09510e-04       6.70339e+01
 18.800      2.13381e+02       1.09087e+01      -4.35655e+00       1.07727e-04       6.59721e+01
 18.900      2.13477e+02       1.06087e+01      -4.43127e+00       1.05973e-04       6.49277e+01
 19.000      2.13573e+02       1.02727e+01      -4.50434e+00       1.04251e-04       6.39007e+01
 19.100      2.13667e+02       9.90487e+00      -4.57525e+00       1.02558e-04       6.28907e+01
 19.200      2.13759e+02       9.50902e+00      -4.64352e+00       1.00894e-04       6.18974e+01
 19.300      2.13850e+02       9.08913e+00      -4.70865e+00       9.92598e-05       6.09206e+01
 19.400      2.13938e+02       8.64913e+00      -4.77016e+00       9.76543e-05       5.99600e+01
 19.500      2.14024e+02       8.19300e+00      -4.82754e+00       9.60773e-05       5.90154e+01
 19.600      2.14107e+02       7.72467e+00      -4.88031e+00       9.45283e-05       5.80865e+01
 19.700      2.14187e+02       7.24808e+00      -4.92798e+00       9.30071e-05       5.71731e+01
 19.800      2.14264e+02       6.76720e+00      -4.97006e+00       9.15133e-05       5.62749e+01
 19.900      2.14337e+02       6.28596e+00      -5.00604e+00       9.00464e-05       5.53918e+01
 20.000      2.14406e+02       5.80832e+00      -5.03545e+00       8.86061e-05       5.45233e+01
 20.100      2.14471e+02       5.33821e+00      -5.05779e+00       8.71921e-05       5.36694e+01
 20.200      2.14531e+02       4.87959e+00      -5.07256e+00       8.58039e-05       5.28298e+01
 20.300      2.14586e+02       4.43641e+00      -5.07928e+00       8.44413e-05       5.20042e+01
