# Data Source: NASA GEOS5 Near-Real-Time
# Model Time = 2010-04-23 18:00:00
# Location = [  39.7393, -104.9900 ]
# Fields = [ Z(km), T(K), U(m/s), V(m/s), R(g/cm3), P(mbar) ]
# Ground Height = 1.589
  0.000      2.87733e+02       3.13996e+00      -6.87775e+00       1.20433e-03       9.94530e+02
  0.100      2.87073e+02       3.15137e+00      -6.88338e+00       1.19289e-03       9.82820e+02
  0.200      2.86412e+02       3.16251e+00      -6.89943e+00       1.18153e-03       9.71221e+02
  0.300      2.85749e+02       3.17102e+00      -6.92938e+00       1.17026e-03       9.59726e+02
  0.400      2.85081e+02       3.17099e+00      -6.97092e+00       1.15908e-03       9.48339e+02
  0.500      2.84411e+02       3.16281e+00      -7.01799e+00       1.14800e-03       9.37066e+02
  0.600      2.83752e+02       3.16390e+00      -7.05610e+00       1.13696e-03       9.25903e+02
  0.700      2.83114e+02       3.18915e+00      -7.07067e+00       1.12591e-03       9.14847e+02
  0.800      2.82477e+02       3.22657e+00      -7.05367e+00       1.11495e-03       9.03898e+02
  0.900      2.81817e+02       3.25758e+00      -7.00144e+00       1.10416e-03       8.93061e+02
  1.000      2.81144e+02       3.28866e+00      -6.93934e+00       1.09350e-03       8.82332e+02
  1.100      2.80495e+02       3.34325e+00      -6.91226e+00       1.08283e-03       8.71704e+02
  1.200      2.79882e+02       3.41792e+00      -6.93185e+00       1.07210e-03       8.61175e+02
  1.300      2.79279e+02       3.46447e+00      -6.95439e+00       1.06141e-03       8.50751e+02
  1.400      2.78663e+02       3.43858e+00      -6.94672e+00       1.05086e-03       8.40434e+02
  1.500      2.78031e+02       3.33575e+00      -6.95378e+00       1.04044e-03       8.30220e+02
  1.600      2.77390e+02       3.16463e+00      -7.04359e+00       1.03014e-03       8.20103e+02
  1.700      2.76743e+02       2.95268e+00      -7.25484e+00       1.01993e-03       8.10080e+02
  1.800      2.76094e+02       2.74697e+00      -7.59581e+00       1.00980e-03       8.00159e+02
  1.900      2.75448e+02       2.59228e+00      -8.06033e+00       9.99753e-04       7.90342e+02
  2.000      2.74810e+02       2.52008e+00      -8.58752e+00       9.89758e-04       7.80627e+02
  2.100      2.74184e+02       2.55717e+00      -9.10338e+00       9.79796e-04       7.71009e+02
  2.200      2.73575e+02       2.68882e+00      -9.57653e+00       9.69850e-04       7.61487e+02
  2.300      2.72986e+02       2.84852e+00      -1.00286e+01       9.59911e-04       7.52061e+02
  2.400      2.72420e+02       2.97236e+00      -1.04799e+01       9.49972e-04       7.42732e+02
  2.500      2.71872e+02       3.04190e+00      -1.09125e+01       9.40057e-04       7.33500e+02
  2.600      2.71331e+02       3.06034e+00      -1.12907e+01       9.30199e-04       7.24365e+02
  2.700      2.70788e+02       3.03337e+00      -1.16010e+01       9.20434e-04       7.15327e+02
  2.800      2.70228e+02       2.97453e+00      -1.19026e+01       9.10811e-04       7.06383e+02
  2.900      2.69634e+02       2.89883e+00      -1.22690e+01       9.01379e-04       6.97533e+02
  3.000      2.69005e+02       2.81213e+00      -1.27434e+01       8.92141e-04       6.88774e+02
  3.100      2.68361e+02       2.70386e+00      -1.33142e+01       8.83028e-04       6.80105e+02
  3.200      2.67724e+02       2.56161e+00      -1.39642e+01       8.73962e-04       6.71524e+02
  3.300      2.67111e+02       2.36908e+00      -1.46733e+01       8.64889e-04       6.63030e+02
  3.400      2.66531e+02       2.10488e+00      -1.54173e+01       8.55779e-04       6.54624e+02
  3.500      2.65996e+02       1.74779e+00      -1.61720e+01       8.46606e-04       6.46306e+02
  3.600      2.65500e+02       1.29067e+00      -1.69029e+01       8.37388e-04       6.38077e+02
  3.700      2.65025e+02       7.42667e-01      -1.75648e+01       8.28189e-04       6.29938e+02
  3.800      2.64552e+02       1.14143e-01      -1.81120e+01       8.19071e-04       6.21891e+02
  3.900      2.64070e+02      -5.70996e-01      -1.85151e+01       8.10067e-04       6.13935e+02
  4.000      2.63581e+02      -1.27066e+00      -1.87669e+01       8.01170e-04       6.06066e+02
  4.100      2.63084e+02      -1.94154e+00      -1.88618e+01       7.92372e-04       5.98282e+02
  4.200      2.62579e+02      -2.54916e+00      -1.88103e+01       7.83676e-04       5.90579e+02
  4.300      2.62055e+02      -3.07762e+00      -1.86573e+01       7.75111e-04       5.82959e+02
  4.400      2.61502e+02      -3.51335e+00      -1.84519e+01       7.66709e-04       5.75423e+02
  4.500      2.60910e+02      -3.84896e+00      -1.82383e+01       7.58493e-04       5.67969e+02
  4.600      2.60283e+02      -4.10631e+00      -1.80376e+01       7.50452e-04       5.60597e+02
  4.700      2.59624e+02      -4.31593e+00      -1.78643e+01       7.42567e-04       5.53302e+02
  4.800      2.58938e+02      -4.50753e+00      -1.77322e+01       7.34817e-04       5.46082e+02
  4.900      2.58233e+02      -4.69579e+00      -1.76480e+01       7.27183e-04       5.38936e+02
  5.000      2.57515e+02      -4.88199e+00      -1.76120e+01       7.19643e-04       5.31864e+02
  5.100      2.56792e+02      -5.06692e+00      -1.76240e+01       7.12174e-04       5.24868e+02
  5.200      2.56072e+02      -5.24967e+00      -1.76838e+01       7.04760e-04       5.17947e+02
  5.300      2.55355e+02      -5.42287e+00      -1.77900e+01       6.97392e-04       5.11098e+02
  5.400      2.54643e+02      -5.57761e+00      -1.79410e+01       6.90069e-04       5.04320e+02
  5.500      2.53936e+02      -5.70513e+00      -1.81351e+01       6.82786e-04       4.97611e+02
  5.600      2.53233e+02      -5.80310e+00      -1.83670e+01       6.75540e-04       4.90969e+02
  5.700      2.52537e+02      -5.87858e+00      -1.86256e+01       6.68334e-04       4.84396e+02
  5.800      2.51848e+02      -5.93935e+00      -1.88996e+01       6.61167e-04       4.77894e+02
  5.900      2.51168e+02      -5.99293e+00      -1.91785e+01       6.54040e-04       4.71466e+02
  6.000      2.50494e+02      -6.04156e+00      -1.94680e+01       6.46957e-04       4.65109e+02
  6.100      2.49826e+02      -6.08289e+00      -1.97881e+01       6.39920e-04       4.58823e+02
  6.200      2.49160e+02      -6.11441e+00      -2.01593e+01       6.32934e-04       4.52604e+02
  6.300      2.48495e+02      -6.13460e+00      -2.06000e+01       6.26002e-04       4.46452e+02
  6.400      2.47826e+02      -6.15842e+00      -2.10970e+01       6.19134e-04       4.40365e+02
  6.500      2.47148e+02      -6.21421e+00      -2.16110e+01       6.12341e-04       4.34343e+02
  6.600      2.46459e+02      -6.33070e+00      -2.21021e+01       6.05635e-04       4.28387e+02
  6.700      2.45751e+02      -6.53589e+00      -2.25312e+01       5.99027e-04       4.22497e+02
  6.800      2.45026e+02      -6.83305e+00      -2.28823e+01       5.92518e-04       4.16672e+02
  6.900      2.44285e+02      -7.19543e+00      -2.31684e+01       5.86097e-04       4.10911e+02
  7.000      2.43533e+02      -7.59450e+00      -2.34038e+01       5.79755e-04       4.05214e+02
  7.100      2.42773e+02      -8.00172e+00      -2.36031e+01       5.73482e-04       3.99579e+02
  7.200      2.42010e+02      -8.39612e+00      -2.37756e+01       5.67266e-04       3.94005e+02
  7.300      2.41245e+02      -8.78084e+00      -2.39146e+01       5.61101e-04       3.88492e+02
  7.400      2.40483e+02      -9.16386e+00      -2.40101e+01       5.54980e-04       3.83039e+02
  7.500      2.39725e+02      -9.55314e+00      -2.40521e+01       5.48893e-04       3.77645e+02
  7.600      2.38976e+02      -9.95675e+00      -2.40310e+01       5.42836e-04       3.72310e+02
  7.700      2.38236e+02      -1.03849e+01      -2.39521e+01       5.36804e-04       3.67033e+02
  7.800      2.37506e+02      -1.08501e+01      -2.38345e+01       5.30798e-04       3.61815e+02
  7.900      2.36787e+02      -1.13648e+01      -2.36979e+01       5.24818e-04       3.56655e+02
  8.000      2.36078e+02      -1.19415e+01      -2.35622e+01       5.18866e-04       3.51554e+02
  8.100      2.35380e+02      -1.25896e+01      -2.34461e+01       5.12941e-04       3.46512e+02
  8.200      2.34691e+02      -1.32859e+01      -2.33573e+01       5.07048e-04       3.41529e+02
  8.300      2.34008e+02      -1.39877e+01      -2.32966e+01       5.01192e-04       3.36603e+02
  8.400      2.33329e+02      -1.46519e+01      -2.32650e+01       4.95380e-04       3.31734e+02
  8.500      2.32651e+02      -1.52356e+01      -2.32631e+01       4.89617e-04       3.26922e+02
  8.600      2.31971e+02      -1.56980e+01      -2.32920e+01       4.83909e-04       3.22166e+02
  8.700      2.31285e+02      -1.60361e+01      -2.33528e+01       4.78264e-04       3.17465e+02
  8.800      2.30586e+02      -1.62754e+01      -2.34473e+01       4.72692e-04       3.12820e+02
  8.900      2.29870e+02      -1.64424e+01      -2.35771e+01       4.67204e-04       3.08227e+02
  9.000      2.29131e+02      -1.65636e+01      -2.37440e+01       4.61810e-04       3.03688e+02
  9.100      2.28362e+02      -1.66654e+01      -2.39495e+01       4.56518e-04       2.99202e+02
  9.200      2.27564e+02      -1.67651e+01      -2.41774e+01       4.51329e-04       2.94766e+02
  9.300      2.26747e+02      -1.68587e+01      -2.43689e+01       4.46216e-04       2.90382e+02
  9.400      2.25927e+02      -1.69390e+01      -2.44593e+01       4.41153e-04       2.86048e+02
  9.500      2.25116e+02      -1.69990e+01      -2.43837e+01       4.36111e-04       2.81764e+02
  9.600      2.24327e+02      -1.70313e+01      -2.40774e+01       4.31066e-04       2.77528e+02
  9.700      2.23575e+02      -1.70285e+01      -2.34767e+01       4.25991e-04       2.73341e+02
  9.800      2.22878e+02      -1.69691e+01      -2.25680e+01       4.20853e-04       2.69203e+02
  9.900      2.22265e+02      -1.68129e+01      -2.14027e+01       4.15609e-04       2.65117e+02
 10.000      2.21762e+02      -1.65187e+01      -2.00367e+01       4.10214e-04       2.61084e+02
 10.100      2.21398e+02      -1.60452e+01      -1.85258e+01       4.04630e-04       2.57107e+02
 10.200      2.21200e+02      -1.53512e+01      -1.69260e+01       3.98818e-04       2.53187e+02
 10.300      2.21196e+02      -1.43956e+01      -1.52931e+01       3.92744e-04       2.49326e+02
 10.400      2.21394e+02      -1.31706e+01      -1.36722e+01       3.86412e-04       2.45526e+02
 10.500      2.21758e+02      -1.17489e+01      -1.20833e+01       3.79903e-04       2.41787e+02
 10.600      2.22244e+02      -1.02147e+01      -1.05425e+01       3.73305e-04       2.38109e+02
 10.700      2.22810e+02      -8.65237e+00      -9.06591e+00       3.66703e-04       2.34493e+02
 10.800      2.23411e+02      -7.14617e+00      -7.66973e+00       3.60172e-04       2.30939e+02
 10.900      2.24004e+02      -5.78038e+00      -6.37012e+00       3.53785e-04       2.27446e+02
 11.000      2.24546e+02      -4.63875e+00      -5.18309e+00       3.47607e-04       2.24015e+02
 11.100      2.25011e+02      -3.75977e+00      -4.11446e+00       3.41671e-04       2.20644e+02
 11.200      2.25397e+02      -3.10292e+00      -3.15219e+00       3.35966e-04       2.17333e+02
 11.300      2.25708e+02      -2.61971e+00      -2.28246e+00       3.30478e-04       2.14078e+02
 11.400      2.25947e+02      -2.26168e+00      -1.49143e+00       3.25191e-04       2.10876e+02
 11.500      2.26118e+02      -1.98033e+00      -7.65258e-01       3.20093e-04       2.07727e+02
 11.600      2.26223e+02      -1.72720e+00      -9.01304e-02       3.15170e-04       2.04628e+02
 11.700      2.26265e+02      -1.45381e+00       5.47783e-01       3.10412e-04       2.01576e+02
 11.800      2.26248e+02      -1.11286e+00       1.16195e+00       3.05807e-04       1.98570e+02
 11.900      2.26177e+02      -6.87404e-01       1.75628e+00       3.01341e-04       1.95609e+02
 12.000      2.26059e+02      -1.92679e-01       2.32454e+00       2.97001e-04       1.92691e+02
 12.100      2.25901e+02       3.54530e-01       2.86005e+00       2.92772e-04       1.89815e+02
 12.200      2.25712e+02       9.37432e-01       3.35607e+00       2.88641e-04       1.86980e+02
 12.300      2.25499e+02       1.53925e+00       3.80592e+00       2.84594e-04       1.84184e+02
 12.400      2.25269e+02       2.14320e+00       4.20289e+00       2.80621e-04       1.81428e+02
 12.500      2.25030e+02       2.73249e+00       4.54027e+00       2.76709e-04       1.78709e+02
 12.600      2.24790e+02       3.29034e+00       4.81136e+00       2.72847e-04       1.76026e+02
 12.700      2.24555e+02       3.80075e+00       5.01000e+00       2.69026e-04       1.73380e+02
 12.800      2.24328e+02       4.25906e+00       5.13804e+00       2.65242e-04       1.70769e+02
 12.900      2.24108e+02       4.66896e+00       5.20321e+00       2.61499e-04       1.68194e+02
 13.000      2.23894e+02       5.03438e+00       5.21342e+00       2.57797e-04       1.65654e+02
 13.100      2.23684e+02       5.35921e+00       5.17655e+00       2.54140e-04       1.63151e+02
 13.200      2.23478e+02       5.64737e+00       5.10049e+00       2.50529e-04       1.60684e+02
 13.300      2.23273e+02       5.90276e+00       4.99313e+00       2.46965e-04       1.58254e+02
 13.400      2.23069e+02       6.12930e+00       4.86236e+00       2.43452e-04       1.55860e+02
 13.500      2.22864e+02       6.33089e+00       4.71606e+00       2.39989e-04       1.53502e+02
 13.600      2.22658e+02       6.51145e+00       4.56213e+00       2.36579e-04       1.51181e+02
 13.700      2.22448e+02       6.67485e+00       4.40834e+00       2.33223e-04       1.48896e+02
 13.800      2.22235e+02       6.82446e+00       4.25954e+00       2.29920e-04       1.46646e+02
 13.900      2.22017e+02       6.96307e+00       4.11752e+00       2.26669e-04       1.44431e+02
 14.000      2.21795e+02       7.09347e+00       3.98396e+00       2.23466e-04       1.42248e+02
 14.100      2.21568e+02       7.21842e+00       3.86052e+00       2.20310e-04       1.40095e+02
 14.200      2.21335e+02       7.34070e+00       3.74886e+00       2.17198e-04       1.37971e+02
 14.300      2.21098e+02       7.46309e+00       3.65065e+00       2.14129e-04       1.35876e+02
 14.400      2.20854e+02       7.58837e+00       3.56755e+00       2.11101e-04       1.33807e+02
 14.500      2.20604e+02       7.71930e+00       3.50123e+00       2.08112e-04       1.31762e+02
 14.600      2.20347e+02       7.85866e+00       3.45335e+00       2.05160e-04       1.29742e+02
 14.700      2.20084e+02       8.00923e+00       3.42557e+00       2.02243e-04       1.27745e+02
 14.800      2.19814e+02       8.17378e+00       3.41956e+00       1.99361e-04       1.25770e+02
 14.900      2.19536e+02       8.35489e+00       3.43682e+00       1.96511e-04       1.23815e+02
 15.000      2.19251e+02       8.55228e+00       3.47645e+00       1.93694e-04       1.21882e+02
 15.100      2.18960e+02       8.76348e+00       3.53573e+00       1.90910e-04       1.19971e+02
 15.200      2.18666e+02       8.98600e+00       3.61190e+00       1.88160e-04       1.18084e+02
 15.300      2.18368e+02       9.21733e+00       3.70220e+00       1.85446e-04       1.16222e+02
 15.400      2.18069e+02       9.45496e+00       3.80388e+00       1.82768e-04       1.14386e+02
 15.500      2.17769e+02       9.69639e+00       3.91417e+00       1.80126e-04       1.12578e+02
 15.600      2.17470e+02       9.93911e+00       4.03031e+00       1.77521e-04       1.10798e+02
 15.700      2.17173e+02       1.01806e+01       4.14955e+00       1.74954e-04       1.09047e+02
 15.800      2.16880e+02       1.04184e+01       4.26913e+00       1.72426e-04       1.07326e+02
 15.900      2.16591e+02       1.06500e+01       4.38628e+00       1.69936e-04       1.05635e+02
 16.000      2.16309e+02       1.08728e+01       4.49825e+00       1.67485e-04       1.03976e+02
 16.100      2.16034e+02       1.10844e+01       4.60227e+00       1.65073e-04       1.02348e+02
 16.200      2.15767e+02       1.12822e+01       4.69559e+00       1.62701e-04       1.00753e+02
 16.300      2.15510e+02       1.14639e+01       4.77553e+00       1.60369e-04       9.91902e+01
 16.400      2.15263e+02       1.16284e+01       4.84104e+00       1.58075e-04       9.76599e+01
 16.500      2.15027e+02       1.17761e+01       4.89264e+00       1.55819e-04       9.61602e+01
 16.600      2.14802e+02       1.19074e+01       4.93089e+00       1.53597e-04       9.46896e+01
 16.700      2.14586e+02       1.20227e+01       4.95637e+00       1.51408e-04       9.32467e+01
 16.800      2.14381e+02       1.21224e+01       4.96964e+00       1.49251e-04       9.18301e+01
 16.900      2.14186e+02       1.22070e+01       4.97128e+00       1.47123e-04       9.04385e+01
 17.000      2.14001e+02       1.22769e+01       4.96186e+00       1.45023e-04       8.90706e+01
 17.100      2.13826e+02       1.23325e+01       4.94195e+00       1.42950e-04       8.77254e+01
 17.200      2.13661e+02       1.23741e+01       4.91211e+00       1.40901e-04       8.64015e+01
 17.300      2.13506e+02       1.24023e+01       4.87293e+00       1.38876e-04       8.50980e+01
 17.400      2.13360e+02       1.24175e+01       4.82496e+00       1.36874e-04       8.38138e+01
 17.500      2.13225e+02       1.24200e+01       4.76879e+00       1.34892e-04       8.25479e+01
 17.600      2.13099e+02       1.24103e+01       4.70498e+00       1.32930e-04       8.12993e+01
 17.700      2.12983e+02       1.23888e+01       4.63410e+00       1.30987e-04       8.00673e+01
 17.800      2.12876e+02       1.23559e+01       4.55673e+00       1.29062e-04       7.88508e+01
 17.900      2.12779e+02       1.23121e+01       4.47343e+00       1.27153e-04       7.76492e+01
 18.000      2.12692e+02       1.22577e+01       4.38477e+00       1.25260e-04       7.64616e+01
 18.100      2.12614e+02       1.21931e+01       4.29133e+00       1.23381e-04       7.52873e+01
 18.200      2.12545e+02       1.21189e+01       4.19368e+00       1.21517e-04       7.41257e+01
 18.300      2.12485e+02       1.20353e+01       4.09238e+00       1.19666e-04       7.29760e+01
 18.400      2.12435e+02       1.19429e+01       3.98802e+00       1.17827e-04       7.18377e+01
 18.500      2.12394e+02       1.18420e+01       3.88115e+00       1.16000e-04       7.07101e+01
 18.600      2.12362e+02       1.17331e+01       3.77234e+00       1.14184e-04       6.95928e+01
 18.700      2.12339e+02       1.16166e+01       3.66204e+00       1.12380e-04       6.84858e+01
 18.800      2.12325e+02       1.14932e+01       3.55047e+00       1.10589e-04       6.73896e+01
 18.900      2.12318e+02       1.13634e+01       3.43785e+00       1.08812e-04       6.63049e+01
 19.000      2.12320e+02       1.12279e+01       3.32441e+00       1.07051e-04       6.52324e+01
 19.100      2.12329e+02       1.10872e+01       3.21036e+00       1.05308e-04       6.41726e+01
 19.200      2.12344e+02       1.09420e+01       3.09593e+00       1.03583e-04       6.31261e+01
 19.300      2.12367e+02       1.07929e+01       2.98133e+00       1.01877e-04       6.20934e+01
 19.400      2.12395e+02       1.06404e+01       2.86680e+00       1.00193e-04       6.10749e+01
 19.500      2.12430e+02       1.04852e+01       2.75254e+00       9.85300e-05       6.00711e+01
 19.600      2.12469e+02       1.03279e+01       2.63879e+00       9.68900e-05       5.90822e+01
 19.700      2.12514e+02       1.01690e+01       2.52576e+00       9.52735e-05       5.81087e+01
 19.800      2.12563e+02       1.00093e+01       2.41367e+00       9.36814e-05       5.71510e+01
 19.900      2.12617e+02       9.84920e+00       2.30274e+00       9.21143e-05       5.62091e+01
 20.000      2.12674e+02       9.68940e+00       2.19319e+00       9.05729e-05       5.52835e+01
 20.100      2.12735e+02       9.53050e+00       2.08526e+00       8.90578e-05       5.43743e+01
 20.200      2.12799e+02       9.37310e+00       1.97914e+00       8.75696e-05       5.34817e+01
 20.300      2.12866e+02       9.21780e+00       1.87508e+00       8.61087e-05       5.26059e+01
