# Data Source: NASA MERRA (version 2)
# Model Time = 2011-04-15 18:00:00
# Location = [  39.1026,  -84.5123 ]
# Fields = [ Z(km), T(K), U(m/s), V(m/s), R(g/cm3), P(mbar) ]
# Ground Height = 0.165
  0.000      2.93694e+02      -2.94930e+00       5.21305e+00       1.20019e-03       1.01164e+03
  0.100      2.93247e+02      -3.01705e+00       5.57652e+00       1.18809e-03       9.99922e+02
  0.200      2.92800e+02      -3.08597e+00       5.94224e+00       1.17612e-03       9.88337e+02
  0.300      2.92250e+02      -3.33263e+00       6.65041e+00       1.16468e-03       9.76889e+02
  0.400      2.91516e+02      -3.87983e+00       7.93536e+00       1.15410e-03       9.65579e+02
  0.500      2.90631e+02      -4.49374e+00       9.32880e+00       1.14419e-03       9.54385e+02
  0.600      2.89675e+02      -4.81635e+00       1.01281e+01       1.13462e-03       9.43283e+02
  0.700      2.88683e+02      -4.79857e+00       1.03890e+01       1.12522e-03       9.32265e+02
  0.800      2.87660e+02      -4.62482e+00       1.07370e+01       1.11598e-03       9.21336e+02
  0.900      2.86640e+02      -4.43006e+00       1.14966e+01       1.10678e-03       9.10500e+02
  1.000      2.85702e+02      -4.26419e+00       1.25074e+01       1.09731e-03       8.99756e+02
  1.100      2.84908e+02      -4.15544e+00       1.35982e+01       1.08735e-03       8.89107e+02
  1.200      2.84232e+02      -4.07831e+00       1.47131e+01       1.07700e-03       8.78553e+02
  1.300      2.83629e+02      -3.99476e+00       1.58230e+01       1.06644e-03       8.68098e+02
  1.400      2.83054e+02      -3.86673e+00       1.68987e+01       1.05586e-03       8.57742e+02
  1.500      2.82461e+02      -3.65640e+00       1.79113e+01       1.04542e-03       8.47487e+02
  1.600      2.81824e+02      -3.35673e+00       1.88350e+01       1.03523e-03       8.37335e+02
  1.700      2.81150e+02      -3.02109e+00       1.96506e+01       1.02526e-03       8.27281e+02
  1.800      2.80450e+02      -2.70988e+00       2.03397e+01       1.01545e-03       8.17324e+02
  1.900      2.79736e+02      -2.48350e+00       2.08838e+01       1.00575e-03       8.07461e+02
  2.000      2.79018e+02      -2.40211e+00       2.12646e+01       9.96138e-04       7.97688e+02
  2.100      2.78301e+02      -2.49282e+00       2.14823e+01       9.86579e-04       7.88005e+02
  2.200      2.77579e+02      -2.71632e+00       2.15743e+01       9.77105e-04       7.78412e+02
  2.300      2.76840e+02      -3.02531e+00       2.15824e+01       9.67750e-04       7.68907e+02
  2.400      2.76076e+02      -3.37250e+00       2.15485e+01       9.58546e-04       7.59493e+02
  2.500      2.75277e+02      -3.71062e+00       2.15145e+01       9.49525e-04       7.50168e+02
  2.600      2.74439e+02      -3.99878e+00       2.15139e+01       9.40700e-04       7.40932e+02
  2.700      2.73578e+02      -4.22321e+00       2.15458e+01       9.32010e-04       7.31785e+02
  2.800      2.72716e+02      -4.37729e+00       2.15999e+01       9.23378e-04       7.22725e+02
  2.900      2.71877e+02      -4.45437e+00       2.16661e+01       9.14727e-04       7.13750e+02
  3.000      2.71082e+02      -4.44783e+00       2.17343e+01       9.05983e-04       7.04861e+02
  3.100      2.70354e+02      -4.35156e+00       2.17944e+01       8.97076e-04       6.96055e+02
  3.200      2.69700e+02      -4.17449e+00       2.18410e+01       8.87982e-04       6.87334e+02
  3.300      2.69115e+02      -3.94274e+00       2.18741e+01       8.78736e-04       6.78699e+02
  3.400      2.68589e+02      -3.68339e+00       2.18941e+01       8.69370e-04       6.70154e+02
  3.500      2.68116e+02      -3.42351e+00       2.19011e+01       8.59918e-04       6.61700e+02
  3.600      2.67687e+02      -3.19017e+00       2.18954e+01       8.50414e-04       6.53340e+02
  3.700      2.67295e+02      -3.00885e+00       2.18775e+01       8.40887e-04       6.45075e+02
  3.800      2.66930e+02      -2.88114e+00       2.18510e+01       8.31373e-04       6.36906e+02
  3.900      2.66582e+02      -2.79009e+00       2.18219e+01       8.21904e-04       6.28830e+02
  4.000      2.66239e+02      -2.71827e+00       2.17965e+01       8.12514e-04       6.20847e+02
  4.100      2.65891e+02      -2.64823e+00       2.17809e+01       8.03235e-04       6.12955e+02
  4.200      2.65528e+02      -2.56255e+00       2.17812e+01       7.94096e-04       6.05153e+02
  4.300      2.65138e+02      -2.44379e+00       2.18035e+01       7.85126e-04       5.97439e+02
  4.400      2.64718e+02      -2.27461e+00       2.18506e+01       7.76333e-04       5.89812e+02
  4.500      2.64274e+02      -2.03786e+00       2.19200e+01       7.67694e-04       5.82271e+02
  4.600      2.63815e+02      -1.71637e+00       2.20089e+01       7.59184e-04       5.74814e+02
  4.700      2.63346e+02      -1.29299e+00       2.21143e+01       7.50778e-04       5.67441e+02
  4.800      2.62877e+02      -7.50548e-01       2.22336e+01       7.42454e-04       5.60151e+02
  4.900      2.62415e+02      -7.19026e-02       2.23637e+01       7.34190e-04       5.52942e+02
  5.000      2.61967e+02       7.58482e-01       2.25017e+01       7.25965e-04       5.45813e+02
  5.100      2.61531e+02       1.73069e+00       2.26426e+01       7.17782e-04       5.38763e+02
  5.200      2.61102e+02       2.81462e+00       2.27797e+01       7.09661e-04       5.31793e+02
  5.300      2.60670e+02       3.97963e+00       2.29065e+01       7.01622e-04       5.24900e+02
  5.400      2.60231e+02       5.19506e+00       2.30162e+01       6.93683e-04       5.18086e+02
  5.500      2.59775e+02       6.43027e+00       2.31022e+01       6.85863e-04       5.11348e+02
  5.600      2.59296e+02       7.65459e+00       2.31578e+01       6.78178e-04       5.04686e+02
  5.700      2.58786e+02       8.83751e+00       2.31766e+01       6.70647e-04       4.98101e+02
  5.800      2.58243e+02       9.95959e+00       2.31596e+01       6.63272e-04       4.91589e+02
  5.900      2.57670e+02       1.10206e+01       2.31215e+01       6.56041e-04       4.85150e+02
  6.000      2.57070e+02       1.20225e+01       2.30783e+01       6.48938e-04       4.78781e+02
  6.100      2.56450e+02       1.29668e+01       2.30461e+01       6.41947e-04       4.72480e+02
  6.200      2.55812e+02       1.38554e+01       2.30407e+01       6.35054e-04       4.66244e+02
  6.300      2.55161e+02       1.46902e+01       2.30782e+01       6.28246e-04       4.60071e+02
  6.400      2.54501e+02       1.54728e+01       2.31746e+01       6.21508e-04       4.53961e+02
  6.500      2.53837e+02       1.62049e+01       2.33456e+01       6.14828e-04       4.47910e+02
  6.600      2.53170e+02       1.68847e+01       2.35945e+01       6.08202e-04       4.41919e+02
  6.700      2.52498e+02       1.75046e+01       2.39053e+01       6.01639e-04       4.35990e+02
  6.800      2.51819e+02       1.80570e+01       2.42608e+01       5.95148e-04       4.30125e+02
  6.900      2.51129e+02       1.85340e+01       2.46437e+01       5.88740e-04       4.24328e+02
  7.000      2.50426e+02       1.89276e+01       2.50364e+01       5.82422e-04       4.18600e+02
  7.100      2.49708e+02       1.92302e+01       2.54219e+01       5.76204e-04       4.12943e+02
  7.200      2.48971e+02       1.94337e+01       2.57826e+01       5.70095e-04       4.07360e+02
  7.300      2.48214e+02       1.95305e+01       2.61012e+01       5.64101e-04       4.01851e+02
  7.400      2.47433e+02       1.95137e+01       2.63616e+01       5.58230e-04       3.96418e+02
  7.500      2.46631e+02       1.93901e+01       2.65620e+01       5.52470e-04       3.91055e+02
  7.600      2.45809e+02       1.91749e+01       2.67097e+01       5.46799e-04       3.85752e+02
  7.700      2.44972e+02       1.88837e+01       2.68124e+01       5.41194e-04       3.80498e+02
  7.800      2.44123e+02       1.85320e+01       2.68776e+01       5.35635e-04       3.75284e+02
  7.900      2.43266e+02       1.81352e+01       2.69130e+01       5.30101e-04       3.70102e+02
  8.000      2.42402e+02       1.77090e+01       2.69261e+01       5.24573e-04       3.64943e+02
  8.100      2.41537e+02       1.72688e+01       2.69246e+01       5.19032e-04       3.59799e+02
  8.200      2.40673e+02       1.68302e+01       2.69160e+01       5.13460e-04       3.54663e+02
  8.300      2.39814e+02       1.64086e+01       2.69081e+01       5.07838e-04       3.49527e+02
  8.400      2.38961e+02       1.60159e+01       2.69054e+01       5.02164e-04       3.44394e+02
  8.500      2.38117e+02       1.56529e+01       2.69043e+01       4.96470e-04       3.39286e+02
  8.600      2.37282e+02       1.53183e+01       2.68992e+01       4.90794e-04       3.34230e+02
  8.700      2.36455e+02       1.50108e+01       2.68848e+01       4.85173e-04       3.29251e+02
  8.800      2.35638e+02       1.47291e+01       2.68555e+01       4.79642e-04       3.24373e+02
  8.900      2.34831e+02       1.44719e+01       2.68059e+01       4.74235e-04       3.19617e+02
  9.000      2.34034e+02       1.42378e+01       2.67306e+01       4.68982e-04       3.15005e+02
  9.100      2.33248e+02       1.40256e+01       2.66241e+01       4.63915e-04       3.10555e+02
  9.200      2.32473e+02       1.38340e+01       2.64810e+01       4.59063e-04       3.06285e+02
  9.300      2.31709e+02       1.36617e+01       2.62958e+01       4.54454e-04       3.02214e+02
  9.400      2.30958e+02       1.35073e+01       2.60632e+01       4.50113e-04       2.98357e+02
  9.500      2.30218e+02       1.33714e+01       2.57834e+01       4.46041e-04       2.94711e+02
  9.600      2.29487e+02       1.32563e+01       2.54634e+01       4.42208e-04       2.91251e+02
  9.700      2.28765e+02       1.31646e+01       2.51103e+01       4.38584e-04       2.87955e+02
  9.800      2.28048e+02       1.30988e+01       2.47312e+01       4.35140e-04       2.84799e+02
  9.900      2.27336e+02       1.30613e+01       2.43335e+01       4.31849e-04       2.81762e+02
 10.000      2.26626e+02       1.30548e+01       2.39242e+01       4.28684e-04       2.78823e+02
 10.100      2.25916e+02       1.30818e+01       2.35107e+01       4.25618e-04       2.75962e+02
 10.200      2.25205e+02       1.31447e+01       2.31001e+01       4.22627e-04       2.73160e+02
 10.300      2.24491e+02       1.32462e+01       2.26996e+01       4.19685e-04       2.70399e+02
 10.400      2.23772e+02       1.33887e+01       2.23165e+01       4.16771e-04       2.67660e+02
 10.500      2.23045e+02       1.35747e+01       2.19578e+01       4.13859e-04       2.64928e+02
 10.600      2.22310e+02       1.38068e+01       2.16309e+01       4.10929e-04       2.62185e+02
 10.700      2.21564e+02       1.40876e+01       2.13430e+01       4.07958e-04       2.59417e+02
 10.800      2.20806e+02       1.44194e+01       2.11011e+01       4.04926e-04       2.56607e+02
 10.900      2.20034e+02       1.48050e+01       2.09126e+01       4.01812e-04       2.53743e+02
 11.000      2.19245e+02       1.52467e+01       2.07847e+01       3.98597e-04       2.50810e+02
 11.100      2.18439e+02       1.57461e+01       2.07233e+01       3.95262e-04       2.47798e+02
 11.200      2.17620e+02       1.62949e+01       2.07224e+01       3.91796e-04       2.44704e+02
 11.300      2.16796e+02       1.68795e+01       2.07697e+01       3.88187e-04       2.41532e+02
 11.400      2.15975e+02       1.74863e+01       2.08527e+01       3.84427e-04       2.38286e+02
 11.500      2.15164e+02       1.81017e+01       2.09591e+01       3.80506e-04       2.34971e+02
 11.600      2.14372e+02       1.87120e+01       2.10762e+01       3.76416e-04       2.31589e+02
 11.700      2.13605e+02       1.93036e+01       2.11918e+01       3.72149e-04       2.28144e+02
 11.800      2.12872e+02       1.98629e+01       2.12932e+01       3.67698e-04       2.24642e+02
 11.900      2.12180e+02       2.03762e+01       2.13681e+01       3.63056e-04       2.21085e+02
 12.000      2.11538e+02       2.08299e+01       2.14041e+01       3.58218e-04       2.17479e+02
 12.100      2.10952e+02       2.12103e+01       2.13886e+01       3.53180e-04       2.13827e+02
 12.200      2.10432e+02       2.15038e+01       2.13092e+01       3.47937e-04       2.10133e+02
 12.300      2.09983e+02       2.16969e+01       2.11535e+01       3.42488e-04       2.06401e+02
 12.400      2.09615e+02       2.17758e+01       2.09089e+01       3.36830e-04       2.02636e+02
 12.500      2.09335e+02       2.17270e+01       2.05633e+01       3.30965e-04       1.98841e+02
 12.600      2.09145e+02       2.15471e+01       2.01128e+01       3.24909e-04       1.95025e+02
 12.700      2.09038e+02       2.12494e+01       1.95681e+01       3.18706e-04       1.91204e+02
 12.800      2.09006e+02       2.08489e+01       1.89412e+01       3.12398e-04       1.87391e+02
 12.900      2.09041e+02       2.03605e+01       1.82443e+01       3.06027e-04       1.83601e+02
 13.000      2.09136e+02       1.97990e+01       1.74893e+01       2.99633e-04       1.79846e+02
 13.100      2.09283e+02       1.91795e+01       1.66884e+01       2.93250e-04       1.76138e+02
 13.200      2.09473e+02       1.85169e+01       1.58535e+01       2.86913e-04       1.72488e+02
 13.300      2.09699e+02       1.78261e+01       1.49967e+01       2.80652e-04       1.68906e+02
 13.400      2.09952e+02       1.71220e+01       1.41301e+01       2.74496e-04       1.65401e+02
 13.500      2.10226e+02       1.64196e+01       1.32657e+01       2.68471e-04       1.61981e+02
 13.600      2.10512e+02       1.57337e+01       1.24155e+01       2.62599e-04       1.58654e+02
 13.700      2.10802e+02       1.50794e+01       1.15917e+01       2.56903e-04       1.55427e+02
 13.800      2.11089e+02       1.44715e+01       1.08062e+01       2.51400e-04       1.52304e+02
 13.900      2.11364e+02       1.39250e+01       1.00711e+01       2.46109e-04       1.49293e+02
 14.000      2.11622e+02       1.34488e+01       9.39379e+00       2.41035e-04       1.46394e+02
 14.100      2.11863e+02       1.30400e+01       8.77263e+00       2.36168e-04       1.43601e+02
 14.200      2.12087e+02       1.26943e+01       8.20479e+00       2.31496e-04       1.40909e+02
 14.300      2.12296e+02       1.24075e+01       7.68746e+00       2.27006e-04       1.38312e+02
 14.400      2.12488e+02       1.21751e+01       7.21784e+00       2.22689e-04       1.35804e+02
 14.500      2.12665e+02       1.19928e+01       6.79314e+00       2.18533e-04       1.33381e+02
 14.600      2.12826e+02       1.18564e+01       6.41056e+00       2.14529e-04       1.31037e+02
 14.700      2.12973e+02       1.17616e+01       6.06728e+00       2.10668e-04       1.28767e+02
 14.800      2.13106e+02       1.17040e+01       5.76052e+00       2.06942e-04       1.26568e+02
 14.900      2.13225e+02       1.16793e+01       5.48747e+00       2.03341e-04       1.24436e+02
 15.000      2.13330e+02       1.16832e+01       5.24532e+00       1.99860e-04       1.22365e+02
 15.100      2.13422e+02       1.17114e+01       5.03128e+00       1.96489e-04       1.20354e+02
 15.200      2.13501e+02       1.17596e+01       4.84254e+00       1.93223e-04       1.18397e+02
 15.300      2.13568e+02       1.18235e+01       4.67631e+00       1.90055e-04       1.16492e+02
 15.400      2.13623e+02       1.18987e+01       4.52979e+00       1.86978e-04       1.14636e+02
 15.500      2.13666e+02       1.19809e+01       4.40016e+00       1.83987e-04       1.12825e+02
 15.600      2.13698e+02       1.20659e+01       4.28464e+00       1.81076e-04       1.11056e+02
 15.700      2.13719e+02       1.21493e+01       4.18041e+00       1.78240e-04       1.09328e+02
 15.800      2.13730e+02       1.22268e+01       4.08469e+00       1.75474e-04       1.07637e+02
 15.900      2.13731e+02       1.22940e+01       3.99466e+00       1.72773e-04       1.05980e+02
 16.000      2.13722e+02       1.23468e+01       3.90752e+00       1.70132e-04       1.04356e+02
 16.100      2.13704e+02       1.23807e+01       3.82048e+00       1.67548e-04       1.02762e+02
 16.200      2.13677e+02       1.23915e+01       3.73074e+00       1.65015e-04       1.01196e+02
 16.300      2.13641e+02       1.23748e+01       3.63549e+00       1.62531e-04       9.96559e+01
 16.400      2.13598e+02       1.23281e+01       3.53301e+00       1.60091e-04       9.81402e+01
 16.500      2.13547e+02       1.22525e+01       3.42375e+00       1.57695e-04       9.66480e+01
 16.600      2.13490e+02       1.21495e+01       3.30845e+00       1.55339e-04       9.51786e+01
 16.700      2.13427e+02       1.20206e+01       3.18786e+00       1.53022e-04       9.37313e+01
 16.800      2.13358e+02       1.18673e+01       3.06271e+00       1.50743e-04       9.23054e+01
 16.900      2.13286e+02       1.16913e+01       2.93373e+00       1.48498e-04       9.09003e+01
 17.000      2.13209e+02       1.14939e+01       2.80167e+00       1.46288e-04       8.95153e+01
 17.100      2.13130e+02       1.12768e+01       2.66727e+00       1.44111e-04       8.81499e+01
 17.200      2.13048e+02       1.10414e+01       2.53126e+00       1.41964e-04       8.68035e+01
 17.300      2.12965e+02       1.07893e+01       2.39439e+00       1.39847e-04       8.54755e+01
 17.400      2.12881e+02       1.05221e+01       2.25739e+00       1.37757e-04       8.41654e+01
 17.500      2.12797e+02       1.02412e+01       2.12099e+00       1.35695e-04       8.28726e+01
 17.600      2.12714e+02       9.94813e+00       1.98594e+00       1.33658e-04       8.15967e+01
 17.700      2.12631e+02       9.64450e+00       1.85298e+00       1.31646e-04       8.03373e+01
 17.800      2.12551e+02       9.33180e+00       1.72285e+00       1.29657e-04       7.90938e+01
 17.900      2.12474e+02       9.01156e+00       1.59627e+00       1.27691e-04       7.78659e+01
 18.000      2.12401e+02       8.68530e+00       1.47400e+00       1.25745e-04       7.66531e+01
 18.100      2.12331e+02       8.35456e+00       1.35677e+00       1.23821e-04       7.54551e+01
 18.200      2.12267e+02       8.02086e+00       1.24531e+00       1.21915e-04       7.42714e+01
 18.300      2.12208e+02       7.68574e+00       1.14038e+00       1.20028e-04       7.31017e+01
 18.400      2.12156e+02       7.35071e+00       1.04270e+00       1.18159e-04       7.19457e+01
 18.500      2.12111e+02       7.01731e+00       9.53007e-01       1.16307e-04       7.08030e+01
 18.600      2.12073e+02       6.68705e+00       8.72043e-01       1.14472e-04       6.96733e+01
 18.700      2.12044e+02       6.36091e+00       8.00012e-01       1.12653e-04       6.85566e+01
 18.800      2.12023e+02       6.03890e+00       7.36211e-01       1.10851e-04       6.74532e+01
 18.900      2.12010e+02       5.72091e+00       6.79842e-01       1.09067e-04       6.63636e+01
 19.000      2.12005e+02       5.40685e+00       6.30110e-01       1.07302e-04       6.52881e+01
 19.100      2.12007e+02       5.09664e+00       5.86219e-01       1.05557e-04       6.42271e+01
 19.200      2.12016e+02       4.79018e+00       5.47373e-01       1.03833e-04       6.31808e+01
 19.300      2.12033e+02       4.48738e+00       5.12777e-01       1.02130e-04       6.21495e+01
 19.400      2.12057e+02       4.18814e+00       4.81633e-01       1.00449e-04       6.11336e+01
 19.500      2.12087e+02       3.89239e+00       4.53147e-01       9.87910e-05       6.01331e+01
 19.600      2.12124e+02       3.60001e+00       4.26523e-01       9.71562e-05       5.91483e+01
 19.700      2.12167e+02       3.31092e+00       4.00964e-01       9.55452e-05       5.81794e+01
 19.800      2.12217e+02       3.02504e+00       3.75675e-01       9.39584e-05       5.72266e+01
 19.900      2.12273e+02       2.74226e+00       3.49860e-01       9.23962e-05       5.62898e+01
 20.000      2.12334e+02       2.46249e+00       3.22722e-01       9.08590e-05       5.53694e+01
 20.100      2.12401e+02       2.18565e+00       2.93467e-01       8.93472e-05       5.44652e+01
 20.200      2.12474e+02       1.91164e+00       2.61297e-01       8.78609e-05       5.35775e+01
 20.300      2.12551e+02       1.64036e+00       2.25419e-01       8.64005e-05       5.27062e+01
