# Data Source: NASA MERRA (version 2)
# Model Time = 2011-02-14 18:00:00
# Location = [  39.1026,  -84.5123 ]
# Fields = [ Z(km), T(K), U(m/s), V(m/s), R(g/cm3), P(mbar) ]
# Ground Height = 0.165
  0.000      2.80404e+02       9.81786e+00      -2.81060e+00       1.26470e-03       1.01778e+03
  0.100      2.79702e+02       1.05699e+01      -3.19319e+00       1.25249e-03       1.00543e+03
  0.200      2.79025e+02       1.13344e+01      -3.52248e+00       1.24030e-03       9.93232e+02
  0.300      2.78316e+02       1.20833e+01      -3.91866e+00       1.22836e-03       9.81174e+02
  0.400      2.77525e+02       1.27847e+01      -4.49486e+00       1.21686e-03       9.69226e+02
  0.500      2.76652e+02       1.33225e+01      -5.18943e+00       1.20578e-03       9.57381e+02
  0.600      2.75752e+02       1.34968e+01      -5.76292e+00       1.19489e-03       9.45643e+02
  0.700      2.74863e+02       1.32933e+01      -6.16446e+00       1.18401e-03       9.34013e+02
  0.800      2.73993e+02       1.29628e+01      -6.61799e+00       1.17312e-03       9.22493e+02
  0.900      2.73115e+02       1.26754e+01      -7.25438e+00       1.16233e-03       9.11079e+02
  1.000      2.72129e+02       1.23893e+01      -7.96383e+00       1.15205e-03       8.99765e+02
  1.100      2.70977e+02       1.20585e+01      -8.63664e+00       1.14252e-03       8.88543e+02
  1.200      2.69783e+02       1.17226e+01      -9.27890e+00       1.13321e-03       8.77420e+02
  1.300      2.68717e+02       1.14408e+01      -9.92388e+00       1.12342e-03       8.66400e+02
  1.400      2.67944e+02       1.12729e+01      -1.06048e+01       1.11247e-03       8.55490e+02
  1.500      2.67628e+02       1.12766e+01      -1.13535e+01       1.09973e-03       8.44694e+02
  1.600      2.67774e+02       1.14691e+01      -1.21642e+01       1.08524e-03       8.34022e+02
  1.700      2.68231e+02       1.18265e+01      -1.29934e+01       1.06970e-03       8.23482e+02
  1.800      2.68842e+02       1.23229e+01      -1.37958e+01       1.05380e-03       8.13086e+02
  1.900      2.69448e+02       1.29323e+01      -1.45261e+01       1.03818e-03       8.02842e+02
  2.000      2.69900e+02       1.36281e+01      -1.51424e+01       1.02342e-03       7.92757e+02
  2.100      2.70153e+02       1.43752e+01      -1.56363e+01       1.00966e-03       7.82824e+02
  2.200      2.70212e+02       1.51341e+01      -1.60179e+01       9.96802e-04       7.73028e+02
  2.300      2.70087e+02       1.58650e+01      -1.62974e+01       9.84784e-04       7.63354e+02
  2.400      2.69786e+02       1.65284e+01      -1.64852e+01       9.73529e-04       7.53788e+02
  2.500      2.69318e+02       1.70873e+01      -1.65925e+01       9.62966e-04       7.44318e+02
  2.600      2.68709e+02       1.75459e+01      -1.66412e+01       9.52985e-04       7.34938e+02
  2.700      2.67997e+02       1.79396e+01      -1.66622e+01       9.43442e-04       7.25649e+02
  2.800      2.67218e+02       1.83048e+01      -1.66861e+01       9.34198e-04       7.16451e+02
  2.900      2.66410e+02       1.86780e+01      -1.67440e+01       9.25120e-04       7.07344e+02
  3.000      2.65611e+02       1.90954e+01      -1.68666e+01       9.16076e-04       6.98329e+02
  3.100      2.64848e+02       1.95800e+01      -1.70740e+01       9.06979e-04       6.89406e+02
  3.200      2.64119e+02       2.01241e+01      -1.73614e+01       8.97831e-04       6.80575e+02
  3.300      2.63420e+02       2.07155e+01      -1.77204e+01       8.88650e-04       6.71834e+02
  3.400      2.62748e+02       2.13419e+01      -1.81427e+01       8.79451e-04       6.63183e+02
  3.500      2.62099e+02       2.19913e+01      -1.86199e+01       8.70249e-04       6.54622e+02
  3.600      2.61467e+02       2.26515e+01      -1.91438e+01       8.61060e-04       6.46149e+02
  3.700      2.60851e+02       2.33138e+01      -1.97067e+01       8.51897e-04       6.37765e+02
  3.800      2.60245e+02       2.39731e+01      -2.03017e+01       8.42772e-04       6.29470e+02
  3.900      2.59648e+02       2.46247e+01      -2.09221e+01       8.33698e-04       6.21263e+02
  4.000      2.59055e+02       2.52635e+01      -2.15611e+01       8.24687e-04       6.13145e+02
  4.100      2.58464e+02       2.58849e+01      -2.22120e+01       8.15750e-04       6.05116e+02
  4.200      2.57870e+02       2.64840e+01      -2.28678e+01       8.06898e-04       5.97175e+02
  4.300      2.57273e+02       2.70633e+01      -2.35235e+01       7.98136e-04       5.89323e+02
  4.400      2.56672e+02       2.76352e+01      -2.41760e+01       7.89462e-04       5.81557e+02
  4.500      2.56069e+02       2.82131e+01      -2.48224e+01       7.80872e-04       5.73876e+02
  4.600      2.55462e+02       2.88104e+01      -2.54600e+01       7.72365e-04       5.66279e+02
  4.700      2.54853e+02       2.94405e+01      -2.60858e+01       7.63937e-04       5.58765e+02
  4.800      2.54242e+02       3.01167e+01      -2.66971e+01       7.55586e-04       5.51333e+02
  4.900      2.53630e+02       3.08498e+01      -2.72914e+01       7.47310e-04       5.43981e+02
  5.000      2.53016e+02       3.16322e+01      -2.78704e+01       7.39108e-04       5.36708e+02
  5.100      2.52401e+02       3.24485e+01      -2.84369e+01       7.30980e-04       5.29516e+02
  5.200      2.51784e+02       3.32833e+01      -2.89941e+01       7.22928e-04       5.22402e+02
  5.300      2.51166e+02       3.41212e+01      -2.95449e+01       7.14950e-04       5.15368e+02
  5.400      2.50545e+02       3.49469e+01      -3.00924e+01       7.07048e-04       5.08413e+02
  5.500      2.49923e+02       3.57449e+01      -3.06396e+01       6.99222e-04       5.01537e+02
  5.600      2.49299e+02       3.65014e+01      -3.11898e+01       6.91470e-04       4.94740e+02
  5.700      2.48676e+02       3.72148e+01      -3.17470e+01       6.83788e-04       4.88019e+02
  5.800      2.48055e+02       3.78893e+01      -3.23163e+01       6.76163e-04       4.81374e+02
  5.900      2.47441e+02       3.85292e+01      -3.29023e+01       6.68589e-04       4.74802e+02
  6.000      2.46835e+02       3.91389e+01      -3.35098e+01       6.61056e-04       4.68303e+02
  6.100      2.46240e+02       3.97227e+01      -3.41437e+01       6.53556e-04       4.61874e+02
  6.200      2.45660e+02       4.02849e+01      -3.48088e+01       6.46079e-04       4.55514e+02
  6.300      2.45096e+02       4.08299e+01      -3.55098e+01       6.38620e-04       4.49221e+02
  6.400      2.44550e+02       4.13625e+01      -3.62458e+01       6.31175e-04       4.42996e+02
  6.500      2.44020e+02       4.18898e+01      -3.70001e+01       6.23757e-04       4.36841e+02
  6.600      2.43503e+02       4.24190e+01      -3.77532e+01       6.16380e-04       4.30760e+02
  6.700      2.42994e+02       4.29574e+01      -3.84857e+01       6.09059e-04       4.24754e+02
  6.800      2.42492e+02       4.35121e+01      -3.91782e+01       6.01805e-04       4.18827e+02
  6.900      2.41991e+02       4.40905e+01      -3.98111e+01       5.94633e-04       4.12982e+02
  7.000      2.41490e+02       4.46999e+01      -4.03651e+01       5.87553e-04       4.07219e+02
  7.100      2.40985e+02       4.53474e+01      -4.08206e+01       5.80577e-04       4.01543e+02
  7.200      2.40473e+02       4.60392e+01      -4.11604e+01       5.73716e-04       3.95954e+02
  7.300      2.39950e+02       4.67714e+01      -4.13867e+01       5.66964e-04       3.90444e+02
  7.400      2.39416e+02       4.75344e+01      -4.15124e+01       5.60309e-04       3.85002e+02
  7.500      2.38868e+02       4.83184e+01      -4.15509e+01       5.53741e-04       3.79617e+02
  7.600      2.38303e+02       4.91138e+01      -4.15151e+01       5.47248e-04       3.74280e+02
  7.700      2.37721e+02       4.99110e+01      -4.14183e+01       5.40821e-04       3.68980e+02
  7.800      2.37118e+02       5.07003e+01      -4.12736e+01       5.34449e-04       3.63707e+02
  7.900      2.36492e+02       5.14721e+01      -4.10942e+01       5.28123e-04       3.58455e+02
  8.000      2.35843e+02       5.22166e+01      -4.08933e+01       5.21835e-04       3.53214e+02
  8.100      2.35166e+02       5.29243e+01      -4.06838e+01       5.15576e-04       3.47977e+02
  8.200      2.34464e+02       5.35882e+01      -4.04734e+01       5.09355e-04       3.42752e+02
  8.300      2.33742e+02       5.42049e+01      -4.02628e+01       5.03199e-04       3.37566e+02
  8.400      2.33005e+02       5.47714e+01      -4.00520e+01       4.97135e-04       3.32447e+02
  8.500      2.32259e+02       5.52845e+01      -3.98410e+01       4.91189e-04       3.27419e+02
  8.600      2.31510e+02       5.57411e+01      -3.96297e+01       4.85386e-04       3.22507e+02
  8.700      2.30762e+02       5.61380e+01      -3.94184e+01       4.79750e-04       3.17732e+02
  8.800      2.30021e+02       5.64722e+01      -3.92070e+01       4.74301e-04       3.13115e+02
  8.900      2.29293e+02       5.67405e+01      -3.89956e+01       4.69062e-04       3.08676e+02
  9.000      2.28584e+02       5.69398e+01      -3.87841e+01       4.64050e-04       3.04433e+02
  9.100      2.27898e+02       5.70669e+01      -3.85727e+01       4.59287e-04       3.00405e+02
  9.200      2.27241e+02       5.71197e+01      -3.83610e+01       4.54782e-04       2.96601e+02
  9.300      2.26614e+02       5.71014e+01      -3.81470e+01       4.50513e-04       2.93006e+02
  9.400      2.26018e+02       5.70167e+01      -3.79280e+01       4.46443e-04       2.89595e+02
  9.500      2.25453e+02       5.68708e+01      -3.77011e+01       4.42538e-04       2.86344e+02
  9.600      2.24919e+02       5.66683e+01      -3.74637e+01       4.38768e-04       2.83232e+02
  9.700      2.24416e+02       5.64144e+01      -3.72131e+01       4.35099e-04       2.80236e+02
  9.800      2.23945e+02       5.61138e+01      -3.69466e+01       4.31503e-04       2.77336e+02
  9.900      2.23506e+02       5.57716e+01      -3.66614e+01       4.27949e-04       2.74513e+02
 10.000      2.23099e+02       5.53925e+01      -3.63548e+01       4.24409e-04       2.71747e+02
 10.100      2.22725e+02       5.49816e+01      -3.60242e+01       4.20857e-04       2.69021e+02
 10.200      2.22384e+02       5.45438e+01      -3.56667e+01       4.17265e-04       2.66316e+02
 10.300      2.22077e+02       5.40839e+01      -3.52797e+01       4.13608e-04       2.63617e+02
 10.400      2.21803e+02       5.36068e+01      -3.48605e+01       4.09861e-04       2.60907e+02
 10.500      2.21563e+02       5.31176e+01      -3.44063e+01       4.06002e-04       2.58171e+02
 10.600      2.21357e+02       5.26210e+01      -3.39144e+01       4.02008e-04       2.55393e+02
 10.700      2.21186e+02       5.21221e+01      -3.33822e+01       3.97857e-04       2.52561e+02
 10.800      2.21049e+02       5.16257e+01      -3.28068e+01       3.93531e-04       2.49660e+02
 10.900      2.20947e+02       5.11358e+01      -3.21877e+01       3.89017e-04       2.46683e+02
 11.000      2.20876e+02       5.06534e+01      -3.15302e+01       3.84328e-04       2.43631e+02
 11.100      2.20832e+02       5.01793e+01      -3.08408e+01       3.79479e-04       2.40510e+02
 11.200      2.20813e+02       4.97140e+01      -3.01259e+01       3.74484e-04       2.37323e+02
 11.300      2.20813e+02       4.92582e+01      -2.93918e+01       3.69360e-04       2.34076e+02
 11.400      2.20830e+02       4.88126e+01      -2.86450e+01       3.64120e-04       2.30772e+02
 11.500      2.20860e+02       4.83777e+01      -2.78919e+01       3.58778e-04       2.27418e+02
 11.600      2.20899e+02       4.79543e+01      -2.71388e+01       3.53349e-04       2.24016e+02
 11.700      2.20944e+02       4.75429e+01      -2.63924e+01       3.47846e-04       2.20572e+02
 11.800      2.20990e+02       4.71442e+01      -2.56588e+01       3.42282e-04       2.17090e+02
 11.900      2.21035e+02       4.67588e+01      -2.49446e+01       3.36670e-04       2.13574e+02
 12.000      2.21075e+02       4.63874e+01      -2.42561e+01       3.31021e-04       2.10028e+02
 12.100      2.21106e+02       4.60306e+01      -2.35998e+01       3.25347e-04       2.06457e+02
 12.200      2.21124e+02       4.56890e+01      -2.29820e+01       3.19660e-04       2.02865e+02
 12.300      2.21127e+02       4.53633e+01      -2.24093e+01       3.13969e-04       1.99255e+02
 12.400      2.21110e+02       4.50536e+01      -2.18848e+01       3.08288e-04       1.95635e+02
 12.500      2.21074e+02       4.47584e+01      -2.14053e+01       3.02632e-04       1.92015e+02
 12.600      2.21019e+02       4.44763e+01      -2.09665e+01       2.97016e-04       1.88405e+02
 12.700      2.20945e+02       4.42059e+01      -2.05643e+01       2.91456e-04       1.84816e+02
 12.800      2.20852e+02       4.39456e+01      -2.01942e+01       2.85965e-04       1.81257e+02
 12.900      2.20739e+02       4.36939e+01      -1.98522e+01       2.80555e-04       1.77737e+02
 13.000      2.20606e+02       4.34495e+01      -1.95340e+01       2.75239e-04       1.74265e+02
 13.100      2.20454e+02       4.32107e+01      -1.92352e+01       2.70027e-04       1.70847e+02
 13.200      2.20283e+02       4.29761e+01      -1.89518e+01       2.64929e-04       1.67491e+02
 13.300      2.20092e+02       4.27442e+01      -1.86795e+01       2.59953e-04       1.64203e+02
 13.400      2.19881e+02       4.25136e+01      -1.84139e+01       2.55109e-04       1.60988e+02
 13.500      2.19650e+02       4.22827e+01      -1.81510e+01       2.50402e-04       1.57853e+02
 13.600      2.19400e+02       4.20501e+01      -1.78864e+01       2.45841e-04       1.54801e+02
 13.700      2.19129e+02       4.18142e+01      -1.76159e+01       2.41431e-04       1.51836e+02
 13.800      2.18839e+02       4.15736e+01      -1.73353e+01       2.37178e-04       1.48964e+02
 13.900      2.18530e+02       4.13273e+01      -1.70424e+01       2.33080e-04       1.46183e+02
 14.000      2.18202e+02       4.10748e+01      -1.67380e+01       2.29129e-04       1.43490e+02
 14.100      2.17859e+02       4.08156e+01      -1.64231e+01       2.25316e-04       1.40880e+02
 14.200      2.17500e+02       4.05494e+01      -1.60984e+01       2.21633e-04       1.38349e+02
 14.300      2.17129e+02       4.02757e+01      -1.57651e+01       2.18071e-04       1.35893e+02
 14.400      2.16746e+02       3.99941e+01      -1.54240e+01       2.14623e-04       1.33509e+02
 14.500      2.16354e+02       3.97042e+01      -1.50761e+01       2.11282e-04       1.31193e+02
 14.600      2.15953e+02       3.94056e+01      -1.47223e+01       2.08041e-04       1.28941e+02
 14.700      2.15546e+02       3.90979e+01      -1.43636e+01       2.04893e-04       1.26750e+02
 14.800      2.15134e+02       3.87806e+01      -1.40009e+01       2.01832e-04       1.24618e+02
 14.900      2.14719e+02       3.84533e+01      -1.36352e+01       1.98852e-04       1.22541e+02
 15.000      2.14301e+02       3.81157e+01      -1.32674e+01       1.95948e-04       1.20517e+02
 15.100      2.13884e+02       3.77673e+01      -1.28985e+01       1.93113e-04       1.18542e+02
 15.200      2.13468e+02       3.74076e+01      -1.25293e+01       1.90344e-04       1.16615e+02
 15.300      2.13055e+02       3.70363e+01      -1.21609e+01       1.87635e-04       1.14733e+02
 15.400      2.12647e+02       3.66530e+01      -1.17941e+01       1.84981e-04       1.12893e+02
 15.500      2.12245e+02       3.62572e+01      -1.14300e+01       1.82378e-04       1.11094e+02
 15.600      2.11851e+02       3.58485e+01      -1.10695e+01       1.79821e-04       1.09334e+02
 15.700      2.11467e+02       3.54266e+01      -1.07135e+01       1.77307e-04       1.07609e+02
 15.800      2.11093e+02       3.49909e+01      -1.03629e+01       1.74832e-04       1.05919e+02
 15.900      2.10732e+02       3.45411e+01      -1.00188e+01       1.72391e-04       1.04262e+02
 16.000      2.10386e+02       3.40768e+01      -9.68198e+00       1.69981e-04       1.02636e+02
 16.100      2.10055e+02       3.35975e+01      -9.35347e+00       1.67600e-04       1.01039e+02
 16.200      2.09742e+02       3.31028e+01      -9.03420e+00       1.65243e-04       9.94698e+01
 16.300      2.09448e+02       3.25931e+01      -8.72471e+00       1.62909e-04       9.79269e+01
 16.400      2.09171e+02       3.20694e+01      -8.42492e+00       1.60597e-04       9.64095e+01
 16.500      2.08913e+02       3.15331e+01      -8.13472e+00       1.58305e-04       9.49166e+01
 16.600      2.08673e+02       3.09856e+01      -7.85400e+00       1.56034e-04       9.34474e+01
 16.700      2.08451e+02       3.04281e+01      -7.58264e+00       1.53782e-04       9.20010e+01
 16.800      2.08247e+02       2.98620e+01      -7.32054e+00       1.51550e-04       9.05768e+01
 16.900      2.08061e+02       2.92885e+01      -7.06756e+00       1.49336e-04       8.91738e+01
 17.000      2.07892e+02       2.87089e+01      -6.82359e+00       1.47141e-04       8.77913e+01
 17.100      2.07740e+02       2.81247e+01      -6.58853e+00       1.44963e-04       8.64288e+01
 17.200      2.07606e+02       2.75370e+01      -6.36225e+00       1.42802e-04       8.50854e+01
 17.300      2.07488e+02       2.69472e+01      -6.14464e+00       1.40658e-04       8.37606e+01
 17.400      2.07388e+02       2.63567e+01      -5.93559e+00       1.38530e-04       8.24538e+01
 17.500      2.07304e+02       2.57666e+01      -5.73497e+00       1.36419e-04       8.11643e+01
 17.600      2.07238e+02       2.51784e+01      -5.54267e+00       1.34323e-04       7.98916e+01
 17.700      2.07187e+02       2.45932e+01      -5.35858e+00       1.32243e-04       7.86351e+01
 17.800      2.07153e+02       2.40126e+01      -5.18259e+00       1.30178e-04       7.73944e+01
 17.900      2.07135e+02       2.34377e+01      -5.01457e+00       1.28127e-04       7.61690e+01
 18.000      2.07134e+02       2.28698e+01      -4.85441e+00       1.26092e-04       7.49584e+01
 18.100      2.07148e+02       2.23103e+01      -4.70200e+00       1.24071e-04       7.37621e+01
 18.200      2.07178e+02       2.17605e+01      -4.55722e+00       1.22065e-04       7.25798e+01
 18.300      2.07224e+02       2.12218e+01      -4.41995e+00       1.20072e-04       7.14110e+01
 18.400      2.07285e+02       2.06952e+01      -4.29008e+00       1.18094e-04       7.02553e+01
 18.500      2.07362e+02       2.01823e+01      -4.16748e+00       1.16130e-04       6.91125e+01
 18.600      2.07453e+02       1.96835e+01      -4.05191e+00       1.14182e-04       6.79829e+01
 18.700      2.07558e+02       1.91991e+01      -3.94309e+00       1.12251e-04       6.68668e+01
 18.800      2.07675e+02       1.87296e+01      -3.84073e+00       1.10339e-04       6.57648e+01
 18.900      2.07803e+02       1.82752e+01      -3.74454e+00       1.08447e-04       6.46774e+01
 19.000      2.07942e+02       1.78362e+01      -3.65422e+00       1.06577e-04       6.36048e+01
 19.100      2.08090e+02       1.74131e+01      -3.56950e+00       1.04731e-04       6.25475e+01
 19.200      2.08247e+02       1.70060e+01      -3.49008e+00       1.02909e-04       6.15057e+01
 19.300      2.08411e+02       1.66154e+01      -3.41568e+00       1.01113e-04       6.04798e+01
 19.400      2.08581e+02       1.62415e+01      -3.34601e+00       9.93438e-05       5.94700e+01
 19.500      2.08757e+02       1.58847e+01      -3.28077e+00       9.76021e-05       5.84766e+01
 19.600      2.08936e+02       1.55452e+01      -3.21969e+00       9.58891e-05       5.74996e+01
 19.700      2.09119e+02       1.52236e+01      -3.16247e+00       9.42054e-05       5.65395e+01
 19.800      2.09304e+02       1.49200e+01      -3.10882e+00       9.25518e-05       5.55962e+01
 19.900      2.09490e+02       1.46347e+01      -3.05846e+00       9.09289e-05       5.46699e+01
 20.000      2.09676e+02       1.43682e+01      -3.01110e+00       8.93373e-05       5.37606e+01
 20.100      2.09862e+02       1.41207e+01      -2.96644e+00       8.77774e-05       5.28686e+01
 20.200      2.10045e+02       1.38925e+01      -2.92421e+00       8.62497e-05       5.19938e+01
 20.300      2.10225e+02       1.36840e+01      -2.88411e+00       8.47545e-05       5.11363e+01
