# Data Source: NASA MERRA (version 2)
# Model Time = 2011-12-31 18:00:00
# Location = [  39.1026,  -84.5123 ]
# Fields = [ Z(km), T(K), U(m/s), V(m/s), R(g/cm3), P(mbar) ]
# Ground Height = 0.165
  0.000      2.79590e+02       3.10954e+00      -8.59578e-02       1.27030e-03       1.01932e+03
  0.100      2.78795e+02       3.24383e+00      -4.92548e-02       1.25842e-03       1.00691e+03
  0.200      2.78073e+02       3.41229e+00      -1.86333e-02       1.24635e-03       9.94672e+02
  0.300      2.77295e+02       3.55423e+00       1.67057e-02       1.23464e-03       9.82568e+02
  0.400      2.76332e+02       3.61010e+00       6.71676e-02       1.22380e-03       9.70564e+02
  0.500      2.75181e+02       3.57216e+00       1.24800e-01       1.21383e-03       9.58644e+02
  0.600      2.74012e+02       3.50547e+00       1.55989e-01       1.20397e-03       9.46822e+02
  0.700      2.72973e+02       3.47180e+00       1.37653e-01       1.19360e-03       9.35103e+02
  0.800      2.72152e+02       3.51684e+00       6.96434e-02       1.18232e-03       9.23483e+02
  0.900      2.71651e+02       3.67022e+00      -5.53011e-02       1.16973e-03       9.11968e+02
  1.000      2.71638e+02       3.92268e+00      -2.70446e-01       1.15521e-03       9.00600e+02
  1.100      2.72227e+02       4.25612e+00      -6.01953e-01       1.13839e-03       8.89414e+02
  1.200      2.73239e+02       4.64149e+00      -1.02213e+00       1.12014e-03       8.78409e+02
  1.300      2.74406e+02       5.04659e+00      -1.48749e+00       1.10162e-03       8.67574e+02
  1.400      2.75461e+02       5.43919e+00      -1.95457e+00       1.08389e-03       8.56896e+02
  1.500      2.76141e+02       5.78745e+00      -2.38028e+00       1.06794e-03       8.46366e+02
  1.600      2.76333e+02       6.08064e+00      -2.74397e+00       1.05409e-03       8.35973e+02
  1.700      2.76148e+02       6.33954e+00      -3.05849e+00       1.04185e-03       8.25710e+02
  1.800      2.75717e+02       6.58755e+00      -3.33944e+00       1.03066e-03       8.15569e+02
  1.900      2.75171e+02       6.84804e+00      -3.60243e+00       1.02001e-03       8.05542e+02
  2.000      2.74638e+02       7.14395e+00      -3.86286e+00       1.00941e-03       7.95624e+02
  2.100      2.74180e+02       7.48401e+00      -4.13019e+00       9.98617e-04       7.85810e+02
  2.200      2.73785e+02       7.86045e+00      -4.40699e+00       9.87703e-04       7.76099e+02
  2.300      2.73432e+02       8.26461e+00      -4.69543e+00       9.76736e-04       7.66493e+02
  2.400      2.73104e+02       8.68780e+00      -4.99767e+00       9.65786e-04       7.56990e+02
  2.500      2.72781e+02       9.12138e+00      -5.31589e+00       9.54922e-04       7.47591e+02
  2.600      2.72453e+02       9.56053e+00      -5.65256e+00       9.44185e-04       7.38295e+02
  2.700      2.72120e+02       1.00077e+01      -6.01073e+00       9.33570e-04       7.29103e+02
  2.800      2.71784e+02       1.04663e+01      -6.39353e+00       9.23069e-04       7.20014e+02
  2.900      2.71449e+02       1.09395e+01      -6.80406e+00       9.12674e-04       7.11027e+02
  3.000      2.71117e+02       1.14307e+01      -7.24545e+00       9.02375e-04       7.02144e+02
  3.100      2.70790e+02       1.19428e+01      -7.71962e+00       8.92167e-04       6.93364e+02
  3.200      2.70466e+02       1.24754e+01      -8.21842e+00       8.82057e-04       6.84685e+02
  3.300      2.70139e+02       1.30267e+01      -8.72860e+00       8.72057e-04       6.76105e+02
  3.400      2.69805e+02       1.35948e+01      -9.23688e+00       8.62182e-04       6.67622e+02
  3.500      2.69459e+02       1.41777e+01      -9.72996e+00       8.52443e-04       6.59234e+02
  3.600      2.69096e+02       1.47735e+01      -1.01946e+01       8.42852e-04       6.50940e+02
  3.700      2.68713e+02       1.53801e+01      -1.06180e+01       8.33418e-04       6.42737e+02
  3.800      2.68306e+02       1.59945e+01      -1.09915e+01       8.24145e-04       6.34624e+02
  3.900      2.67876e+02       1.66131e+01      -1.13072e+01       8.15031e-04       6.26601e+02
  4.000      2.67422e+02       1.72328e+01      -1.15576e+01       8.06077e-04       6.18666e+02
  4.100      2.66943e+02       1.78499e+01      -1.17350e+01       7.97281e-04       6.10818e+02
  4.200      2.66438e+02       1.84612e+01      -1.18318e+01       7.88644e-04       6.03057e+02
  4.300      2.65906e+02       1.90630e+01      -1.18409e+01       7.80164e-04       5.95382e+02
  4.400      2.65347e+02       1.96479e+01      -1.17651e+01       7.71839e-04       5.87791e+02
  4.500      2.64761e+02       2.02057e+01      -1.16140e+01       7.63665e-04       5.80282e+02
  4.600      2.64148e+02       2.07262e+01      -1.13979e+01       7.55637e-04       5.72853e+02
  4.700      2.63509e+02       2.11989e+01      -1.11268e+01       7.47750e-04       5.65502e+02
  4.800      2.62843e+02       2.16137e+01      -1.08107e+01       7.40002e-04       5.58227e+02
  4.900      2.62150e+02       2.19603e+01      -1.04597e+01       7.32388e-04       5.51027e+02
  5.000      2.61431e+02       2.22298e+01      -1.00844e+01       7.24903e-04       5.43900e+02
  5.100      2.60688e+02       2.24227e+01      -9.69849e+00       7.17540e-04       5.36844e+02
  5.200      2.59923e+02       2.25428e+01      -9.31694e+00       7.10289e-04       5.29861e+02
  5.300      2.59140e+02       2.25941e+01      -8.95463e+00       7.03140e-04       5.22948e+02
  5.400      2.58341e+02       2.25804e+01      -8.62650e+00       6.96086e-04       5.16106e+02
  5.500      2.57529e+02       2.25057e+01      -8.34747e+00       6.89118e-04       5.09333e+02
  5.600      2.56707e+02       2.23738e+01      -8.13245e+00       6.82226e-04       5.02630e+02
  5.700      2.55878e+02       2.21892e+01      -7.99541e+00       6.75403e-04       4.95995e+02
  5.800      2.55044e+02       2.19628e+01      -7.93631e+00       6.68638e-04       4.89428e+02
  5.900      2.54212e+02       2.17106e+01      -7.94446e+00       6.61918e-04       4.82927e+02
  6.000      2.53383e+02       2.14489e+01      -8.00892e+00       6.55232e-04       4.76491e+02
  6.100      2.52563e+02       2.11937e+01      -8.11873e+00       6.48568e-04       4.70118e+02
  6.200      2.51756e+02       2.09614e+01      -8.26294e+00       6.41914e-04       4.63808e+02
  6.300      2.50965e+02       2.07679e+01      -8.43059e+00       6.35259e-04       4.57558e+02
  6.400      2.50196e+02       2.06296e+01      -8.61074e+00       6.28593e-04       4.51368e+02
  6.500      2.49450e+02       2.05604e+01      -8.79339e+00       6.21906e-04       4.45237e+02
  6.600      2.48730e+02       2.05568e+01      -8.97633e+00       6.15206e-04       4.39168e+02
  6.700      2.48032e+02       2.06068e+01      -9.16100e+00       6.08503e-04       4.33163e+02
  6.800      2.47354e+02       2.06988e+01      -9.34889e+00       6.01809e-04       4.27227e+02
  6.900      2.46695e+02       2.08206e+01      -9.54147e+00       5.95134e-04       4.21363e+02
  7.000      2.46053e+02       2.09605e+01      -9.74022e+00       5.88490e-04       4.15575e+02
  7.100      2.45425e+02       2.11065e+01      -9.94662e+00       5.81887e-04       4.09864e+02
  7.200      2.44810e+02       2.12468e+01      -1.01622e+01       5.75335e-04       4.04233e+02
  7.300      2.44206e+02       2.13694e+01      -1.03883e+01       5.68843e-04       3.98686e+02
  7.400      2.43610e+02       2.14685e+01      -1.06260e+01       5.62416e-04       3.93219e+02
  7.500      2.43017e+02       2.15495e+01      -1.08753e+01       5.56052e-04       3.87824e+02
  7.600      2.42422e+02       2.16197e+01      -1.11359e+01       5.49748e-04       3.82488e+02
  7.700      2.41819e+02       2.16861e+01      -1.14078e+01       5.43502e-04       3.77201e+02
  7.800      2.41203e+02       2.17558e+01      -1.16907e+01       5.37310e-04       3.71954e+02
  7.900      2.40569e+02       2.18359e+01      -1.19846e+01       5.31171e-04       3.66738e+02
  8.000      2.39912e+02       2.19334e+01      -1.22891e+01       5.25082e-04       3.61544e+02
  8.100      2.39227e+02       2.20554e+01      -1.26043e+01       5.19042e-04       3.56364e+02
  8.200      2.38507e+02       2.22090e+01      -1.29299e+01       5.13048e-04       3.51190e+02
  8.300      2.37750e+02       2.24005e+01      -1.32655e+01       5.07102e-04       3.46017e+02
  8.400      2.36958e+02       2.26294e+01      -1.36087e+01       5.01220e-04       3.40864e+02
  8.500      2.36138e+02       2.28923e+01      -1.39562e+01       4.95424e-04       3.35757e+02
  8.600      2.35298e+02       2.31853e+01      -1.43046e+01       4.89736e-04       3.30722e+02
  8.700      2.34446e+02       2.35048e+01      -1.46505e+01       4.84176e-04       3.25783e+02
  8.800      2.33587e+02       2.38473e+01      -1.49905e+01       4.78765e-04       3.20962e+02
  8.900      2.32730e+02       2.42090e+01      -1.53213e+01       4.73520e-04       3.16281e+02
  9.000      2.31882e+02       2.45863e+01      -1.56396e+01       4.68458e-04       3.11759e+02
  9.100      2.31049e+02       2.49755e+01      -1.59418e+01       4.63596e-04       3.07416e+02
  9.200      2.30240e+02       2.53731e+01      -1.62247e+01       4.58948e-04       3.03268e+02
  9.300      2.29461e+02       2.57753e+01      -1.64849e+01       4.54530e-04       2.99332e+02
  9.400      2.28717e+02       2.61788e+01      -1.67198e+01       4.50344e-04       2.95614e+02
  9.500      2.28007e+02       2.65809e+01      -1.69292e+01       4.46363e-04       2.92091e+02
  9.600      2.27328e+02       2.69788e+01      -1.71128e+01       4.42557e-04       2.88739e+02
  9.700      2.26679e+02       2.73700e+01      -1.72707e+01       4.38900e-04       2.85535e+02
  9.800      2.26057e+02       2.77518e+01      -1.74027e+01       4.35364e-04       2.82457e+02
  9.900      2.25461e+02       2.81216e+01      -1.75087e+01       4.31922e-04       2.79485e+02
 10.000      2.24888e+02       2.84767e+01      -1.75886e+01       4.28550e-04       2.76598e+02
 10.100      2.24335e+02       2.88145e+01      -1.76424e+01       4.25222e-04       2.73776e+02
 10.200      2.23802e+02       2.91323e+01      -1.76700e+01       4.21917e-04       2.71002e+02
 10.300      2.23285e+02       2.94275e+01      -1.76712e+01       4.18609e-04       2.68257e+02
 10.400      2.22783e+02       2.96974e+01      -1.76460e+01       4.15279e-04       2.65523e+02
 10.500      2.22293e+02       2.99395e+01      -1.75943e+01       4.11903e-04       2.62786e+02
 10.600      2.21813e+02       3.01510e+01      -1.75159e+01       4.08462e-04       2.60028e+02
 10.700      2.21342e+02       3.03293e+01      -1.74109e+01       4.04936e-04       2.57236e+02
 10.800      2.20876e+02       3.04719e+01      -1.72792e+01       4.01306e-04       2.54393e+02
 10.900      2.20414e+02       3.05759e+01      -1.71205e+01       3.97553e-04       2.51488e+02
 11.000      2.19955e+02       3.06390e+01      -1.69349e+01       3.93662e-04       2.48507e+02
 11.100      2.19497e+02       3.06611e+01      -1.67225e+01       3.89623e-04       2.45446e+02
 11.200      2.19045e+02       3.06448e+01      -1.64837e+01       3.85437e-04       2.42309e+02
 11.300      2.18602e+02       3.05931e+01      -1.62189e+01       3.81105e-04       2.39101e+02
 11.400      2.18171e+02       3.05085e+01      -1.59286e+01       3.76627e-04       2.35825e+02
 11.500      2.17755e+02       3.03939e+01      -1.56131e+01       3.72004e-04       2.32487e+02
 11.600      2.17358e+02       3.02520e+01      -1.52729e+01       3.67239e-04       2.29090e+02
 11.700      2.16983e+02       3.00855e+01      -1.49084e+01       3.62333e-04       2.25640e+02
 11.800      2.16633e+02       2.98973e+01      -1.45199e+01       3.57288e-04       2.22139e+02
 11.900      2.16311e+02       2.96901e+01      -1.41079e+01       3.52108e-04       2.18593e+02
 12.000      2.16021e+02       2.94666e+01      -1.36729e+01       3.46795e-04       2.15006e+02
 12.100      2.15766e+02       2.92296e+01      -1.32151e+01       3.41353e-04       2.11382e+02
 12.200      2.15549e+02       2.89819e+01      -1.27352e+01       3.35787e-04       2.07726e+02
 12.300      2.15373e+02       2.87262e+01      -1.22333e+01       3.30100e-04       2.04041e+02
 12.400      2.15242e+02       2.84652e+01      -1.17100e+01       3.24297e-04       2.00333e+02
 12.500      2.15158e+02       2.82013e+01      -1.11662e+01       3.18387e-04       1.96605e+02
 12.600      2.15117e+02       2.79343e+01      -1.06049e+01       3.12398e-04       1.92870e+02
 12.700      2.15115e+02       2.76635e+01      -1.00303e+01       3.06361e-04       1.89142e+02
 12.800      2.15146e+02       2.73877e+01      -9.44630e+00       3.00308e-04       1.85431e+02
 12.900      2.15205e+02       2.71063e+01      -8.85685e+00       2.94267e-04       1.81751e+02
 13.000      2.15287e+02       2.68182e+01      -8.26594e+00       2.88264e-04       1.78111e+02
 13.100      2.15386e+02       2.65227e+01      -7.67756e+00       2.82325e-04       1.74521e+02
 13.200      2.15498e+02       2.62187e+01      -7.09569e+00       2.76470e-04       1.70991e+02
 13.300      2.15618e+02       2.59055e+01      -6.52429e+00       2.70722e-04       1.67529e+02
 13.400      2.15739e+02       2.55821e+01      -5.96736e+00       2.65099e-04       1.64142e+02
 13.500      2.15858e+02       2.52476e+01      -5.42886e+00       2.59618e-04       1.60836e+02
 13.600      2.15968e+02       2.49011e+01      -4.91278e+00       2.54296e-04       1.57620e+02
 13.700      2.16065e+02       2.45418e+01      -4.42310e+00       2.49145e-04       1.54497e+02
 13.800      2.16143e+02       2.41687e+01      -3.96380e+00       2.44180e-04       1.51473e+02
 13.900      2.16198e+02       2.37811e+01      -3.53873e+00       2.39411e-04       1.48552e+02
 14.000      2.16228e+02       2.33789e+01      -3.14909e+00       2.34837e-04       1.45734e+02
 14.100      2.16233e+02       2.29633e+01      -2.79339e+00       2.30446e-04       1.43013e+02
 14.200      2.16217e+02       2.25353e+01      -2.47004e+00       2.26227e-04       1.40384e+02
 14.300      2.16181e+02       2.20959e+01      -2.17744e+00       2.22168e-04       1.37842e+02
 14.400      2.16126e+02       2.16463e+01      -1.91400e+00       2.18260e-04       1.35382e+02
 14.500      2.16053e+02       2.11875e+01      -1.67811e+00       2.14491e-04       1.33000e+02
 14.600      2.15966e+02       2.07206e+01      -1.46818e+00       2.10855e-04       1.30692e+02
 14.700      2.15865e+02       2.02467e+01      -1.28262e+00       2.07340e-04       1.28454e+02
 14.800      2.15752e+02       1.97669e+01      -1.11982e+00       2.03939e-04       1.26281e+02
 14.900      2.15629e+02       1.92821e+01      -9.78182e-01       2.00646e-04       1.24171e+02
 15.000      2.15498e+02       1.87936e+01      -8.56118e-01       1.97451e-04       1.22119e+02
 15.100      2.15360e+02       1.83023e+01      -7.52028e-01       1.94348e-04       1.20123e+02
 15.200      2.15216e+02       1.78094e+01      -6.64314e-01       1.91330e-04       1.18179e+02
 15.300      2.15070e+02       1.73159e+01      -5.91379e-01       1.88391e-04       1.16285e+02
 15.400      2.14922e+02       1.68229e+01      -5.31626e-01       1.85525e-04       1.14437e+02
 15.500      2.14773e+02       1.63314e+01      -4.83457e-01       1.82727e-04       1.12633e+02
 15.600      2.14627e+02       1.58426e+01      -4.45276e-01       1.79990e-04       1.10870e+02
 15.700      2.14484e+02       1.53575e+01      -4.15486e-01       1.77311e-04       1.09147e+02
 15.800      2.14346e+02       1.48772e+01      -3.92488e-01       1.74682e-04       1.07460e+02
 15.900      2.14214e+02       1.44028e+01      -3.74686e-01       1.72101e-04       1.05807e+02
 16.000      2.14092e+02       1.39352e+01      -3.60483e-01       1.69563e-04       1.04187e+02
 16.100      2.13979e+02       1.34757e+01      -3.48282e-01       1.67063e-04       1.02597e+02
 16.200      2.13879e+02       1.30253e+01      -3.36485e-01       1.64597e-04       1.01035e+02
 16.300      2.13792e+02       1.25851e+01      -3.23505e-01       1.62163e-04       9.95002e+01
 16.400      2.13719e+02       1.21555e+01      -3.08419e-01       1.59756e-04       9.79904e+01
 16.500      2.13661e+02       1.17362e+01      -2.91344e-01       1.57377e-04       9.65049e+01
 16.600      2.13616e+02       1.13267e+01      -2.72489e-01       1.55026e-04       9.50429e+01
 16.700      2.13585e+02       1.09267e+01      -2.52063e-01       1.52701e-04       9.36038e+01
 16.800      2.13566e+02       1.05356e+01      -2.30276e-01       1.50403e-04       9.21869e+01
 16.900      2.13559e+02       1.01530e+01      -2.07336e-01       1.48131e-04       9.07914e+01
 17.000      2.13563e+02       9.77851e+00      -1.83453e-01       1.45885e-04       8.94167e+01
 17.100      2.13579e+02       9.41162e+00      -1.58837e-01       1.43664e-04       8.80621e+01
 17.200      2.13606e+02       9.05192e+00      -1.33696e-01       1.41468e-04       8.67272e+01
 17.300      2.13643e+02       8.69896e+00      -1.08240e-01       1.39298e-04       8.54112e+01
 17.400      2.13689e+02       8.35228e+00      -8.26775e-02       1.37152e-04       8.41136e+01
 17.500      2.13745e+02       8.01145e+00      -5.72184e-02       1.35030e-04       8.28338e+01
 17.600      2.13810e+02       7.67602e+00      -3.20717e-02       1.32932e-04       8.15714e+01
 17.700      2.13882e+02       7.34555e+00      -7.44680e-03       1.30858e-04       8.03259e+01
 17.800      2.13963e+02       7.01960e+00       1.64467e-02       1.28807e-04       7.90968e+01
 17.900      2.14051e+02       6.69770e+00       3.94005e-02       1.26779e-04       7.78836e+01
 18.000      2.14145e+02       6.37944e+00       6.12049e-02       1.24774e-04       7.66859e+01
 18.100      2.14246e+02       6.06435e+00       8.16505e-02       1.22792e-04       7.55033e+01
 18.200      2.14353e+02       5.75200e+00       1.00528e-01       1.20833e-04       7.43353e+01
 18.300      2.14465e+02       5.44194e+00       1.17629e-01       1.18895e-04       7.31816e+01
 18.400      2.14582e+02       5.13372e+00       1.32743e-01       1.16980e-04       7.20418e+01
 18.500      2.14703e+02       4.82690e+00       1.45661e-01       1.15086e-04       7.09155e+01
 18.600      2.14828e+02       4.52104e+00       1.56175e-01       1.13214e-04       6.98025e+01
 18.700      2.14956e+02       4.21581e+00       1.64142e-01       1.11363e-04       6.87025e+01
 18.800      2.15087e+02       3.91123e+00       1.69577e-01       1.09535e-04       6.76159e+01
 18.900      2.15221e+02       3.60730e+00       1.72520e-01       1.07730e-04       6.65430e+01
 19.000      2.15356e+02       3.30406e+00       1.73009e-01       1.05949e-04       6.54840e+01
 19.100      2.15493e+02       3.00156e+00       1.71082e-01       1.04192e-04       6.44393e+01
 19.200      2.15631e+02       2.69982e+00       1.66778e-01       1.02461e-04       6.34090e+01
 19.300      2.15770e+02       2.39888e+00       1.60135e-01       1.00755e-04       6.23934e+01
 19.400      2.15908e+02       2.09876e+00       1.51193e-01       9.90753e-05       6.13926e+01
 19.500      2.16046e+02       1.79950e+00       1.39990e-01       9.74224e-05       6.04069e+01
 19.600      2.16183e+02       1.50114e+00       1.26563e-01       9.57965e-05       5.94364e+01
 19.700      2.16318e+02       1.20371e+00       1.10953e-01       9.41979e-05       5.84812e+01
 19.800      2.16452e+02       9.07248e-01       9.31981e-02       9.26271e-05       5.75414e+01
 19.900      2.16583e+02       6.11774e-01       7.33356e-02       9.10841e-05       5.66172e+01
 20.000      2.16711e+02       3.17327e-01       5.14049e-02       8.95693e-05       5.57085e+01
 20.100      2.16835e+02       2.39426e-02       2.74444e-02       8.80828e-05       5.48155e+01
 20.200      2.16956e+02      -2.68347e-01       1.49287e-03       8.66247e-05       5.39381e+01
 20.300      2.17073e+02      -5.59504e-01      -2.64106e-02       8.51952e-05       5.30765e+01
