# Data Source: NASA GEOS5 Near-Real-Time
# Model Time = 2010-05-17 18:00:00
# Location = [  39.7393, -104.9900 ]
# Fields = [ Z(km), T(K), U(m/s), V(m/s), R(g/cm3), P(mbar) ]
# Ground Height = 1.589
  0.000      3.02503e+02       6.54680e-01      -1.48969e-01       1.16934e-03       1.01520e+03
  0.100      3.01857e+02       6.19573e-01      -1.42423e-01       1.15813e-03       1.00332e+03
  0.200      3.01215e+02       5.82598e-01      -1.36025e-01       1.14702e-03       9.91587e+02
  0.300      3.00565e+02       5.50378e-01      -1.29252e-01       1.13606e-03       9.79988e+02
  0.400      2.99897e+02       5.28694e-01      -1.21528e-01       1.12527e-03       9.68529e+02
  0.500      2.99225e+02       5.08865e-01      -1.11362e-01       1.11462e-03       9.57205e+02
  0.600      2.98575e+02       4.70384e-01      -9.65523e-02       1.10398e-03       9.46016e+02
  0.700      2.97955e+02       4.09274e-01      -7.82230e-02       1.09335e-03       9.34957e+02
  0.800      2.97338e+02       3.46146e-01      -6.23588e-02       1.08281e-03       9.24024e+02
  0.900      2.96705e+02       3.01502e-01      -5.34048e-02       1.07242e-03       9.13214e+02
  1.000      2.96069e+02       2.89567e-01      -4.99175e-02       1.06215e-03       9.02531e+02
  1.100      2.95445e+02       3.20385e-01      -5.01657e-02       1.05195e-03       8.91979e+02
  1.200      2.94842e+02       3.78939e-01      -5.94277e-02       1.04179e-03       8.81557e+02
  1.300      2.94268e+02       4.37810e-01      -8.60817e-02       1.03163e-03       8.71263e+02
  1.400      2.93703e+02       4.74654e-01      -1.19165e-01       1.02155e-03       8.61093e+02
  1.500      2.93098e+02       4.74497e-01      -1.20080e-01       1.01171e-03       8.51044e+02
  1.600      2.92407e+02       4.27207e-01      -5.62446e-02       1.00227e-03       8.41113e+02
  1.700      2.91622e+02       3.46086e-01       6.02976e-02       9.93231e-04       8.31290e+02
  1.800      2.90747e+02       2.52290e-01       2.02448e-01       9.84566e-04       8.21565e+02
  1.900      2.89805e+02       1.59444e-01       3.51616e-01       9.76183e-04       8.11932e+02
  2.000      2.88845e+02       7.01329e-02       5.01705e-01       9.67915e-04       8.02387e+02
  2.100      2.87913e+02      -1.42357e-02       6.47488e-01       9.59602e-04       7.92930e+02
  2.200      2.87016e+02      -9.48316e-02       7.82637e-01       9.51227e-04       7.83560e+02
  2.300      2.86139e+02      -1.74156e-01       9.00256e-01       9.42838e-04       7.74277e+02
  2.400      2.85271e+02      -2.51302e-01       9.94901e-01       9.34477e-04       7.65082e+02
  2.500      2.84405e+02      -3.14521e-01       1.06573e+00       9.26159e-04       7.55971e+02
  2.600      2.83539e+02      -3.49855e-01       1.11285e+00       9.17896e-04       7.46945e+02
  2.700      2.82669e+02      -3.39146e-01       1.13751e+00       9.09700e-04       7.38002e+02
  2.800      2.81788e+02      -2.57845e-01       1.14273e+00       9.01590e-04       7.29145e+02
  2.900      2.80893e+02      -8.23846e-02       1.13135e+00       8.93583e-04       7.20375e+02
  3.000      2.79985e+02       1.80034e-01       1.09963e+00       8.85673e-04       7.11689e+02
  3.100      2.79068e+02       4.93664e-01       1.03772e+00       8.77837e-04       7.03081e+02
  3.200      2.78148e+02       8.22735e-01       9.36709e-01       8.70050e-04       6.94546e+02
  3.300      2.77229e+02       1.14503e+00       8.02873e-01       8.62295e-04       6.86083e+02
  3.400      2.76318e+02       1.44772e+00       6.53004e-01       8.54559e-04       6.77693e+02
  3.500      2.75419e+02       1.72014e+00       5.03266e-01       8.46830e-04       6.69379e+02
  3.600      2.74533e+02       1.97358e+00       3.60404e-01       8.39106e-04       6.61141e+02
  3.700      2.73661e+02       2.23313e+00       2.25255e-01       8.31390e-04       6.52979e+02
  3.800      2.72799e+02       2.52324e+00       9.82363e-02       8.23689e-04       6.44894e+02
  3.900      2.71946e+02       2.85719e+00      -2.45850e-02       8.16011e-04       6.36884e+02
  4.000      2.71096e+02       3.24035e+00      -1.50214e-01       8.08370e-04       6.28949e+02
  4.100      2.70245e+02       3.67789e+00      -2.86080e-01       8.00780e-04       6.21087e+02
  4.200      2.69397e+02       4.17384e+00      -4.47911e-01       7.93226e-04       6.13298e+02
  4.300      2.68567e+02       4.73106e+00      -6.59756e-01       7.85669e-04       6.05583e+02
  4.400      2.67768e+02       5.35224e+00      -9.45794e-01       7.78071e-04       5.97943e+02
  4.500      2.67013e+02       6.02730e+00      -1.30702e+00       7.70400e-04       5.90379e+02
  4.600      2.66310e+02       6.72270e+00      -1.70183e+00       7.62637e-04       5.82890e+02
  4.700      2.65665e+02       7.40237e+00      -2.08405e+00       7.54766e-04       5.75478e+02
  4.800      2.65083e+02       8.03712e+00      -2.41496e+00       7.46779e-04       5.68142e+02
  4.900      2.64552e+02       8.63118e+00      -2.69215e+00       7.38719e-04       5.60883e+02
  5.000      2.64053e+02       9.19890e+00      -2.92423e+00       7.30639e-04       5.53701e+02
  5.100      2.63568e+02       9.75366e+00      -3.11955e+00       7.22591e-04       5.46596e+02
  5.200      2.63086e+02       1.02836e+01      -3.28021e+00       7.14605e-04       5.39568e+02
  5.300      2.62605e+02       1.07503e+01      -3.40167e+00       7.06694e-04       5.32618e+02
  5.400      2.62119e+02       1.11141e+01      -3.47912e+00       6.98866e-04       5.25745e+02
  5.500      2.61627e+02       1.13448e+01      -3.51015e+00       6.91132e-04       5.18949e+02
  5.600      2.61119e+02       1.14650e+01      -3.50594e+00       6.83509e-04       5.12229e+02
  5.700      2.60588e+02       1.15156e+01      -3.48233e+00       6.76014e-04       5.05584e+02
  5.800      2.60027e+02       1.15374e+01      -3.45518e+00       6.68666e-04       4.99010e+02
  5.900      2.59427e+02       1.15596e+01      -3.43855e+00       6.61476e-04       4.92506e+02
  6.000      2.58791e+02       1.15819e+01      -3.44197e+00       6.54440e-04       4.86072e+02
  6.100      2.58118e+02       1.15991e+01      -3.47425e+00       6.47553e-04       4.79705e+02
  6.200      2.57409e+02       1.16061e+01      -3.54411e+00       6.40808e-04       4.73405e+02
  6.300      2.56669e+02       1.16027e+01      -3.65239e+00       6.34192e-04       4.67171e+02
  6.400      2.55912e+02       1.15980e+01      -3.78476e+00       6.27669e-04       4.61002e+02
  6.500      2.55152e+02       1.16020e+01      -3.92519e+00       6.21203e-04       4.54898e+02
  6.600      2.54403e+02       1.16247e+01      -4.05765e+00       6.14760e-04       4.48859e+02
  6.700      2.53673e+02       1.16700e+01      -4.16989e+00       6.08320e-04       4.42883e+02
  6.800      2.52957e+02       1.17273e+01      -4.25838e+00       6.01898e-04       4.36970e+02
  6.900      2.52245e+02       1.17838e+01      -4.32080e+00       5.95514e-04       4.31118e+02
  7.000      2.51530e+02       1.18269e+01      -4.35484e+00       5.89185e-04       4.25328e+02
  7.100      2.50806e+02       1.18489e+01      -4.35981e+00       5.82925e-04       4.19597e+02
  7.200      2.50076e+02       1.18647e+01      -4.34279e+00       5.76726e-04       4.13927e+02
  7.300      2.49348e+02       1.18962e+01      -4.31315e+00       5.70572e-04       4.08317e+02
  7.400      2.48627e+02       1.19652e+01      -4.28026e+00       5.64449e-04       4.02768e+02
  7.500      2.47920e+02       1.20928e+01      -4.25324e+00       5.58345e-04       3.97280e+02
  7.600      2.47225e+02       1.22840e+01      -4.23504e+00       5.52267e-04       3.91853e+02
  7.700      2.46529e+02       1.25274e+01      -4.22245e+00       5.46240e-04       3.86485e+02
  7.800      2.45820e+02       1.28107e+01      -4.21197e+00       5.40289e-04       3.81176e+02
  7.900      2.45086e+02       1.31219e+01      -4.20010e+00       5.34441e-04       3.75924e+02
  8.000      2.44316e+02       1.34495e+01      -4.18522e+00       5.28714e-04       3.70728e+02
  8.100      2.43515e+02       1.37877e+01      -4.17863e+00       5.23098e-04       3.65587e+02
  8.200      2.42692e+02       1.41329e+01      -4.19704e+00       5.17571e-04       3.60502e+02
  8.300      2.41856e+02       1.44815e+01      -4.25720e+00       5.12111e-04       3.55471e+02
  8.400      2.41018e+02       1.48298e+01      -4.37583e+00       5.06697e-04       3.50494e+02
  8.500      2.40185e+02       1.51725e+01      -4.56413e+00       5.01312e-04       3.45571e+02
  8.600      2.39354e+02       1.54937e+01      -4.80333e+00       4.95963e-04       3.40700e+02
  8.700      2.38519e+02       1.57745e+01      -5.06456e+00       4.90662e-04       3.35882e+02
  8.800      2.37671e+02       1.59957e+01      -5.31897e+00       4.85422e-04       3.31114e+02
  8.900      2.36805e+02       1.61382e+01      -5.53768e+00       4.80256e-04       3.26396e+02
  9.000      2.35914e+02       1.61854e+01      -5.69337e+00       4.75175e-04       3.21728e+02
  9.100      2.35003e+02       1.61445e+01      -5.77434e+00       4.70167e-04       3.17108e+02
  9.200      2.34084e+02       1.60371e+01      -5.77810e+00       4.65210e-04       3.12538e+02
  9.300      2.33167e+02       1.58850e+01      -5.70227e+00       4.60282e-04       3.08016e+02
  9.400      2.32264e+02       1.57097e+01      -5.54447e+00       4.55362e-04       3.03543e+02
  9.500      2.31386e+02       1.55330e+01      -5.30234e+00       4.50429e-04       2.99119e+02
  9.600      2.30539e+02       1.53718e+01      -4.97890e+00       4.45471e-04       2.94744e+02
  9.700      2.29721e+02       1.52323e+01      -4.58915e+00       4.40494e-04       2.90418e+02
  9.800      2.28929e+02       1.51191e+01      -4.14969e+00       4.35507e-04       2.86140e+02
  9.900      2.28159e+02       1.50370e+01      -3.67715e+00       4.30518e-04       2.81910e+02
 10.000      2.27407e+02       1.49907e+01      -3.18814e+00       4.25536e-04       2.77730e+02
 10.100      2.26669e+02       1.49849e+01      -2.69922e+00       4.20568e-04       2.73597e+02
 10.200      2.25944e+02       1.50219e+01      -2.22435e+00       4.15620e-04       2.69513e+02
 10.300      2.25232e+02       1.51006e+01      -1.77342e+00       4.10691e-04       2.65477e+02
 10.400      2.24533e+02       1.52195e+01      -1.35603e+00       4.05780e-04       2.61489e+02
 10.500      2.23849e+02       1.53772e+01      -9.81744e-01       4.00888e-04       2.57550e+02
 10.600      2.23180e+02       1.55721e+01      -6.60160e-01       3.96014e-04       2.53658e+02
 10.700      2.22527e+02       1.58029e+01      -4.00858e-01       3.91158e-04       2.49814e+02
 10.800      2.21889e+02       1.60665e+01      -2.10039e-01       3.86322e-04       2.46018e+02
 10.900      2.21260e+02       1.63536e+01      -8.22385e-02       3.81516e-04       2.42269e+02
 11.000      2.20635e+02       1.66542e+01      -9.46119e-03       3.76750e-04       2.38567e+02
 11.100      2.20007e+02       1.69577e+01       1.62828e-02       3.72035e-04       2.34910e+02
 11.200      2.19368e+02       1.72541e+01       2.98551e-03       3.67383e-04       2.31300e+02
 11.300      2.18714e+02       1.75329e+01      -4.13617e-02       3.62802e-04       2.27734e+02
 11.400      2.18036e+02       1.77838e+01      -1.08761e-01       3.58302e-04       2.24213e+02
 11.500      2.17334e+02       1.80013e+01      -1.90335e-01       3.53886e-04       2.20735e+02
 11.600      2.16610e+02       1.81895e+01      -2.75370e-01       3.49543e-04       2.17301e+02
 11.700      2.15873e+02       1.83535e+01      -3.52922e-01       3.45263e-04       2.13910e+02
 11.800      2.15127e+02       1.84988e+01      -4.12051e-01       3.41034e-04       2.10560e+02
 11.900      2.14379e+02       1.86305e+01      -4.41812e-01       3.36846e-04       2.07251e+02
 12.000      2.13636e+02       1.87541e+01      -4.31265e-01       3.32688e-04       2.03983e+02
 12.100      2.12903e+02       1.88746e+01      -3.69464e-01       3.28551e-04       2.00754e+02
 12.200      2.12186e+02       1.89967e+01      -2.47655e-01       3.24423e-04       1.97565e+02
 12.300      2.11497e+02       1.91181e+01      -7.51950e-02       3.20292e-04       1.94416e+02
 12.400      2.10849e+02       1.92331e+01       1.29589e-01       3.16139e-04       1.91307e+02
 12.500      2.10254e+02       1.93362e+01       3.48312e-01       3.11950e-04       1.88240e+02
 12.600      2.09726e+02       1.94216e+01       5.62586e-01       3.07710e-04       1.85214e+02
 12.700      2.09277e+02       1.94838e+01       7.54021e-01       3.03404e-04       1.82232e+02
 12.800      2.08920e+02       1.95171e+01       9.04233e-01       2.99019e-04       1.79292e+02
 12.900      2.08669e+02       1.95159e+01       9.94832e-01       2.94544e-04       1.76396e+02
 13.000      2.08535e+02       1.94748e+01       1.00809e+00       2.89968e-04       1.73544e+02
 13.100      2.08516e+02       1.93922e+01       9.40531e-01       2.85303e-04       1.70737e+02
 13.200      2.08595e+02       1.92707e+01       8.02498e-01       2.80580e-04       1.67974e+02
 13.300      2.08756e+02       1.91127e+01       6.04890e-01       2.75828e-04       1.65257e+02
 13.400      2.08981e+02       1.89209e+01       3.58614e-01       2.71077e-04       1.62585e+02
 13.500      2.09253e+02       1.86978e+01       7.45676e-02       2.66353e-04       1.59959e+02
 13.600      2.09554e+02       1.84460e+01      -2.36344e-01       2.61680e-04       1.57379e+02
 13.700      2.09867e+02       1.81680e+01      -5.63215e-01       2.57081e-04       1.54845e+02
 13.800      2.10176e+02       1.78665e+01      -8.95147e-01       2.52579e-04       1.52357e+02
 13.900      2.10462e+02       1.75440e+01      -1.22123e+00       2.48192e-04       1.49915e+02
 14.000      2.10714e+02       1.72030e+01      -1.53205e+00       2.43934e-04       1.47518e+02
 14.100      2.10930e+02       1.68461e+01      -1.82351e+00       2.39797e-04       1.45166e+02
 14.200      2.11116e+02       1.64757e+01      -2.09268e+00       2.35773e-04       1.42855e+02
 14.300      2.11274e+02       1.60944e+01      -2.33669e+00       2.31851e-04       1.40584e+02
 14.400      2.11409e+02       1.57046e+01      -2.55261e+00       2.28021e-04       1.38351e+02
 14.500      2.11525e+02       1.53088e+01      -2.73755e+00       2.24277e-04       1.36153e+02
 14.600      2.11625e+02       1.49095e+01      -2.88860e+00       2.20608e-04       1.33990e+02
 14.700      2.11714e+02       1.45093e+01      -3.00285e+00       2.17009e-04       1.31859e+02
 14.800      2.11794e+02       1.41105e+01      -3.07742e+00       2.13472e-04       1.29759e+02
 14.900      2.11870e+02       1.37157e+01      -3.10938e+00       2.09990e-04       1.27688e+02
 15.000      2.11946e+02       1.33273e+01      -3.09584e+00       2.06556e-04       1.25645e+02
 15.100      2.12025e+02       1.29478e+01      -3.03432e+00       2.03166e-04       1.23628e+02
 15.200      2.12108e+02       1.25780e+01      -2.92699e+00       1.99818e-04       1.21639e+02
 15.300      2.12195e+02       1.22179e+01      -2.77893e+00       1.96515e-04       1.19678e+02
 15.400      2.12287e+02       1.18674e+01      -2.59524e+00       1.93259e-04       1.17745e+02
 15.500      2.12381e+02       1.15265e+01      -2.38105e+00       1.90051e-04       1.15843e+02
 15.600      2.12479e+02       1.11952e+01      -2.14145e+00       1.86894e-04       1.13971e+02
 15.700      2.12581e+02       1.08735e+01      -1.88157e+00       1.83789e-04       1.12131e+02
 15.800      2.12684e+02       1.05612e+01      -1.60651e+00       1.80738e-04       1.10323e+02
 15.900      2.12791e+02       1.02584e+01      -1.32138e+00       1.77741e-04       1.08548e+02
 16.000      2.12899e+02       9.96502e+00      -1.03131e+00       1.74800e-04       1.06806e+02
 16.100      2.13009e+02       9.68102e+00      -7.41391e-01       1.71917e-04       1.05099e+02
 16.200      2.13121e+02       9.40635e+00      -4.56746e-01       1.69091e-04       1.03426e+02
 16.300      2.13234e+02       9.14099e+00      -1.82490e-01       1.66324e-04       1.01787e+02
 16.400      2.13348e+02       8.88489e+00       7.62753e-02       1.63617e-04       1.00184e+02
 16.500      2.13463e+02       8.63798e+00       3.15124e-01       1.60969e-04       9.86160e+01
 16.600      2.13578e+02       8.39994e+00       5.33564e-01       1.58379e-04       9.70818e+01
 16.700      2.13694e+02       8.17036e+00       7.32488e-01       1.55845e-04       9.55799e+01
 16.800      2.13811e+02       7.94887e+00       9.12789e-01       1.53362e-04       9.41088e+01
 16.900      2.13927e+02       7.73504e+00       1.07537e+00       1.50930e-04       9.26669e+01
 17.000      2.14044e+02       7.52848e+00       1.22111e+00       1.48546e-04       9.12529e+01
 17.100      2.14160e+02       7.32879e+00       1.35093e+00       1.46208e-04       8.98654e+01
 17.200      2.14277e+02       7.13558e+00       1.46570e+00       1.43913e-04       8.85031e+01
 17.300      2.14394e+02       6.94845e+00       1.56632e+00       1.41660e-04       8.71649e+01
 17.400      2.14510e+02       6.76698e+00       1.65370e+00       1.39447e-04       8.58494e+01
 17.500      2.14626e+02       6.59080e+00       1.72872e+00       1.37271e-04       8.45556e+01
 17.600      2.14741e+02       6.41948e+00       1.79229e+00       1.35131e-04       8.32824e+01
 17.700      2.14856e+02       6.25265e+00       1.84528e+00       1.33026e-04       8.20288e+01
 17.800      2.14970e+02       6.08990e+00       1.88861e+00       1.30954e-04       8.07938e+01
 17.900      2.15083e+02       5.93082e+00       1.92316e+00       1.28913e-04       7.95765e+01
 18.000      2.15196e+02       5.77502e+00       1.94984e+00       1.26902e-04       7.83759e+01
 18.100      2.15307e+02       5.62210e+00       1.96953e+00       1.24919e-04       7.71913e+01
 18.200      2.15418e+02       5.47166e+00       1.98313e+00       1.22963e-04       7.60217e+01
 18.300      2.15527e+02       5.32330e+00       1.99154e+00       1.21033e-04       7.48666e+01
 18.400      2.15635e+02       5.17663e+00       1.99564e+00       1.19128e-04       7.37250e+01
 18.500      2.15741e+02       5.03123e+00       1.99635e+00       1.17247e-04       7.25963e+01
 18.600      2.15846e+02       4.88672e+00       1.99454e+00       1.15387e-04       7.14799e+01
 18.700      2.15949e+02       4.74270e+00       1.99112e+00       1.13550e-04       7.03752e+01
 18.800      2.16051e+02       4.59879e+00       1.98694e+00       1.11733e-04       6.92816e+01
 18.900      2.16150e+02       4.45505e+00       1.98230e+00       1.09936e-04       6.81992e+01
 19.000      2.16248e+02       4.31180e+00       1.97715e+00       1.08162e-04       6.71285e+01
 19.100      2.16343e+02       4.16937e+00       1.97143e+00       1.06409e-04       6.60700e+01
 19.200      2.16436e+02       4.02808e+00       1.96509e+00       1.04680e-04       6.50241e+01
 19.300      2.16527e+02       3.88827e+00       1.95806e+00       1.02974e-04       6.39912e+01
 19.400      2.16615e+02       3.75026e+00       1.95029e+00       1.01292e-04       6.29716e+01
 19.500      2.16700e+02       3.61437e+00       1.94172e+00       9.96346e-05       6.19657e+01
 19.600      2.16782e+02       3.48094e+00       1.93229e+00       9.80026e-05       6.09738e+01
 19.700      2.16861e+02       3.35029e+00       1.92194e+00       9.63962e-05       5.99962e+01
 19.800      2.16937e+02       3.22276e+00       1.91061e+00       9.48157e-05       5.90331e+01
 19.900      2.17009e+02       3.09866e+00       1.89825e+00       9.32614e-05       5.80848e+01
 20.000      2.17078e+02       2.97832e+00       1.88480e+00       9.17338e-05       5.71514e+01
 20.100      2.17143e+02       2.86208e+00       1.87019e+00       9.02329e-05       5.62332e+01
 20.200      2.17204e+02       2.75025e+00       1.85438e+00       8.87591e-05       5.53302e+01
 20.300      2.17261e+02       2.64318e+00       1.83729e+00       8.73125e-05       5.44427e+01
