# Data Source: NASA MERRA (version 2)
# Model Time = 2011-11-20 18:00:00
# Location = [  39.1026,  -84.5123 ]
# Fields = [ Z(km), T(K), U(m/s), V(m/s), R(g/cm3), P(mbar) ]
# Ground Height = 0.165
  0.000      2.88660e+02       1.26320e+00       8.86027e-01       1.23318e-03       1.02163e+03
  0.100      2.88036e+02       2.08859e+00       1.33997e+00       1.22130e-03       1.00960e+03
  0.200      2.87347e+02       2.77370e+00       1.83006e+00       1.20984e-03       9.97734e+02
  0.300      2.86673e+02       3.49211e+00       2.31156e+00       1.19842e-03       9.86000e+02
  0.400      2.86096e+02       4.41738e+00       2.73976e+00       1.18669e-03       9.74385e+02
  0.500      2.85666e+02       5.62347e+00       3.06846e+00       1.17444e-03       9.62878e+02
  0.600      2.85332e+02       6.84461e+00       3.24647e+00       1.16190e-03       9.51484e+02
  0.700      2.85034e+02       7.79563e+00       3.24848e+00       1.14934e-03       9.40214e+02
  0.800      2.84778e+02       8.50696e+00       3.20937e+00       1.13674e-03       9.29073e+02
  0.900      2.84589e+02       9.11439e+00       3.30672e+00       1.12402e-03       9.18061e+02
  1.000      2.84394e+02       9.60967e+00       3.50183e+00       1.11145e-03       9.07174e+02
  1.100      2.84057e+02       9.88370e+00       3.60448e+00       1.09955e-03       8.96400e+02
  1.200      2.83523e+02       9.90208e+00       3.52524e+00       1.08851e-03       8.85733e+02
  1.300      2.82862e+02       9.74895e+00       3.33513e+00       1.07804e-03       8.75172e+02
  1.400      2.82160e+02       9.51857e+00       3.11889e+00       1.06781e-03       8.64715e+02
  1.500      2.81498e+02       9.30521e+00       2.96124e+00       1.05751e-03       8.54363e+02
  1.600      2.80956e+02       9.19959e+00       2.94287e+00       1.04684e-03       8.44115e+02
  1.700      2.80542e+02       9.23394e+00       3.07752e+00       1.03579e-03       8.33972e+02
  1.800      2.80204e+02       9.39245e+00       3.32400e+00       1.02455e-03       8.23933e+02
  1.900      2.79891e+02       9.65792e+00       3.63949e+00       1.01333e-03       8.13998e+02
  2.000      2.79550e+02       1.00131e+01       3.98116e+00       1.00232e-03       8.04169e+02
  2.100      2.79132e+02       1.04407e+01       4.30696e+00       9.91682e-04       7.94444e+02
  2.200      2.78626e+02       1.09204e+01       4.58779e+00       9.81450e-04       7.84823e+02
  2.300      2.78058e+02       1.14298e+01       4.80525e+00       9.71525e-04       7.75302e+02
  2.400      2.77453e+02       1.19462e+01       4.94128e+00       9.61809e-04       7.65878e+02
  2.500      2.76835e+02       1.24471e+01       4.97780e+00       9.52209e-04       7.56547e+02
  2.600      2.76232e+02       1.29101e+01       4.89698e+00       9.42634e-04       7.47307e+02
  2.700      2.75659e+02       1.33259e+01       4.70038e+00       9.33027e-04       7.38156e+02
  2.800      2.75118e+02       1.37077e+01       4.42316e+00       9.23389e-04       7.29097e+02
  2.900      2.74608e+02       1.40712e+01       4.10380e+00       9.13723e-04       7.20129e+02
  3.000      2.74131e+02       1.44319e+01       3.78077e+00       9.04036e-04       7.11255e+02
  3.100      2.73685e+02       1.48055e+01       3.49257e+00       8.94332e-04       7.02476e+02
  3.200      2.73270e+02       1.52065e+01       3.27531e+00       8.84616e-04       6.93792e+02
  3.300      2.72881e+02       1.56386e+01       3.14207e+00       8.74914e-04       6.85205e+02
  3.400      2.72506e+02       1.60998e+01       3.09290e+00       8.65259e-04       6.76712e+02
  3.500      2.72135e+02       1.65879e+01       3.12770e+00       8.55682e-04       6.68312e+02
  3.600      2.71760e+02       1.71006e+01       3.24639e+00       8.46214e-04       6.60005e+02
  3.700      2.71369e+02       1.76357e+01       3.44886e+00       8.36886e-04       6.51790e+02
  3.800      2.70953e+02       1.81912e+01       3.73410e+00       8.27722e-04       6.43666e+02
  3.900      2.70510e+02       1.87659e+01       4.09393e+00       8.18727e-04       6.35631e+02
  4.000      2.70041e+02       1.93587e+01       4.51674e+00       8.09895e-04       6.27683e+02
  4.100      2.69545e+02       1.99690e+01       4.99092e+00       8.01222e-04       6.19820e+02
  4.200      2.69023e+02       2.05959e+01       5.50484e+00       7.92701e-04       6.12041e+02
  4.300      2.68475e+02       2.12386e+01       6.04690e+00       7.84329e-04       6.04343e+02
  4.400      2.67902e+02       2.18959e+01       6.60549e+00       7.76100e-04       5.96726e+02
  4.500      2.67307e+02       2.25586e+01       7.16971e+00       7.68001e-04       5.89188e+02
  4.600      2.66696e+02       2.32074e+01       7.72950e+00       7.60015e-04       5.81728e+02
  4.700      2.66075e+02       2.38225e+01       8.27482e+00       7.52120e-04       5.74346e+02
  4.800      2.65452e+02       2.43841e+01       8.79568e+00       7.44297e-04       5.67040e+02
  4.900      2.64832e+02       2.48723e+01       9.28203e+00       7.36529e-04       5.59811e+02
  5.000      2.64221e+02       2.52675e+01       9.72386e+00       7.28798e-04       5.52658e+02
  5.100      2.63626e+02       2.55516e+01       1.01117e+01       7.21087e-04       5.45579e+02
  5.200      2.63045e+02       2.57322e+01       1.04430e+01       7.13403e-04       5.38575e+02
  5.300      2.62470e+02       2.58350e+01       1.07203e+01       7.05765e-04       5.31645e+02
  5.400      2.61895e+02       2.58863e+01       1.09462e+01       6.98194e-04       5.24789e+02
  5.500      2.61311e+02       2.59121e+01       1.11235e+01       6.90708e-04       5.18005e+02
  5.600      2.60712e+02       2.59387e+01       1.12548e+01       6.83326e-04       5.11294e+02
  5.700      2.60089e+02       2.59923e+01       1.13426e+01       6.76067e-04       5.04655e+02
  5.800      2.59437e+02       2.60989e+01       1.13898e+01       6.68947e-04       4.98087e+02
  5.900      2.58751e+02       2.62744e+01       1.13992e+01       6.61971e-04       4.91589e+02
  6.000      2.58035e+02       2.65172e+01       1.13747e+01       6.55125e-04       4.85160e+02
  6.100      2.57294e+02       2.68238e+01       1.13199e+01       6.48394e-04       4.78796e+02
  6.200      2.56533e+02       2.71908e+01       1.12385e+01       6.41762e-04       4.72497e+02
  6.300      2.55756e+02       2.76149e+01       1.11345e+01       6.35214e-04       4.66259e+02
  6.400      2.54967e+02       2.80924e+01       1.10114e+01       6.28737e-04       4.60082e+02
  6.500      2.54172e+02       2.86202e+01       1.08731e+01       6.22316e-04       4.53962e+02
  6.600      2.53374e+02       2.91946e+01       1.07233e+01       6.15938e-04       4.47899e+02
  6.700      2.52577e+02       2.98081e+01       1.05652e+01       6.09595e-04       4.41893e+02
  6.800      2.51784e+02       3.04475e+01       1.04011e+01       6.03286e-04       4.35947e+02
  6.900      2.50996e+02       3.10987e+01       1.02333e+01       5.97014e-04       4.30063e+02
  7.000      2.50214e+02       3.17479e+01       1.00641e+01       5.90778e-04       4.24246e+02
  7.100      2.49441e+02       3.23812e+01       9.89577e+00       5.84578e-04       4.18497e+02
  7.200      2.48679e+02       3.29847e+01       9.73060e+00       5.78415e-04       4.12819e+02
  7.300      2.47928e+02       3.35445e+01       9.57086e+00       5.72289e-04       4.07215e+02
  7.400      2.47192e+02       3.40467e+01       9.41882e+00       5.66201e-04       4.01686e+02
  7.500      2.46471e+02       3.44788e+01       9.27677e+00       5.60150e-04       3.96235e+02
  7.600      2.45765e+02       3.48436e+01       9.14695e+00       5.54131e-04       3.90854e+02
  7.700      2.45072e+02       3.51527e+01       9.03159e+00       5.48138e-04       3.85536e+02
  7.800      2.44388e+02       3.54183e+01       8.93292e+00       5.42163e-04       3.80269e+02
  7.900      2.43711e+02       3.56522e+01       8.85316e+00       5.36201e-04       3.75046e+02
  8.000      2.43039e+02       3.58665e+01       8.79455e+00       5.30245e-04       3.69857e+02
  8.100      2.42369e+02       3.60729e+01       8.75930e+00       5.24290e-04       3.64696e+02
  8.200      2.41699e+02       3.62835e+01       8.74966e+00       5.18330e-04       3.59554e+02
  8.300      2.41027e+02       3.65103e+01       8.76784e+00       5.12361e-04       3.54424e+02
  8.400      2.40349e+02       3.67652e+01       8.81607e+00       5.06378e-04       3.49300e+02
  8.500      2.39664e+02       3.70558e+01       8.89353e+00       5.00387e-04       3.44184e+02
  8.600      2.38972e+02       3.73787e+01       8.99122e+00       4.94420e-04       3.39099e+02
  8.700      2.38274e+02       3.77282e+01       9.09884e+00       4.88515e-04       3.34069e+02
  8.800      2.37570e+02       3.80991e+01       9.20605e+00       4.82704e-04       3.29119e+02
  8.900      2.36859e+02       3.84858e+01       9.30253e+00       4.77020e-04       3.24272e+02
  9.000      2.36144e+02       3.88828e+01       9.37795e+00       4.71494e-04       3.19547e+02
  9.100      2.35423e+02       3.92848e+01       9.42200e+00       4.66156e-04       3.14964e+02
  9.200      2.34697e+02       3.96862e+01       9.42434e+00       4.61033e-04       3.10543e+02
  9.300      2.33967e+02       4.00816e+01       9.37466e+00       4.56152e-04       3.06299e+02
  9.400      2.33233e+02       4.04655e+01       9.26262e+00       4.51539e-04       3.02251e+02
  9.500      2.32495e+02       4.08326e+01       9.07814e+00       4.47219e-04       2.98412e+02
  9.600      2.31754e+02       4.11812e+01       8.81894e+00       4.43189e-04       2.94779e+02
  9.700      2.31008e+02       4.15143e+01       8.49241e+00       4.39418e-04       2.91331e+02
  9.800      2.30259e+02       4.18351e+01       8.10653e+00       4.35873e-04       2.88044e+02
  9.900      2.29505e+02       4.21469e+01       7.66926e+00       4.32524e-04       2.84895e+02
 10.000      2.28746e+02       4.24527e+01       7.18858e+00       4.29341e-04       2.81864e+02
 10.100      2.27983e+02       4.27559e+01       6.67247e+00       4.26295e-04       2.78930e+02
 10.200      2.27215e+02       4.30597e+01       6.12889e+00       4.23357e-04       2.76074e+02
 10.300      2.26441e+02       4.33672e+01       5.56582e+00       4.20501e-04       2.73277e+02
 10.400      2.25661e+02       4.36817e+01       4.99124e+00       4.17700e-04       2.70522e+02
 10.500      2.24876e+02       4.40064e+01       4.41311e+00       4.14928e-04       2.67791e+02
 10.600      2.24084e+02       4.43446e+01       3.83942e+00       4.12160e-04       2.65069e+02
 10.700      2.23286e+02       4.46994e+01       3.27813e+00       4.09372e-04       2.62338e+02
 10.800      2.22481e+02       4.50741e+01       2.73722e+00       4.06540e-04       2.59584e+02
 10.900      2.21669e+02       4.54718e+01       2.22466e+00       4.03641e-04       2.56793e+02
 11.000      2.20851e+02       4.58959e+01       1.74842e+00       4.00652e-04       2.53950e+02
 11.100      2.20024e+02       4.63494e+01       1.31649e+00       3.97553e-04       2.51042e+02
 11.200      2.19190e+02       4.68351e+01       9.36305e-01       3.94322e-04       2.48059e+02
 11.300      2.18353e+02       4.73490e+01       6.08850e-01       3.90949e-04       2.44997e+02
 11.400      2.17516e+02       4.78825e+01       3.30704e-01       3.87425e-04       2.41858e+02
 11.500      2.16687e+02       4.84269e+01       9.83541e-02       3.83744e-04       2.38647e+02
 11.600      2.15871e+02       4.89735e+01      -9.17037e-02       3.79900e-04       2.35367e+02
 11.700      2.15073e+02       4.95137e+01      -2.42974e-01       3.75888e-04       2.32021e+02
 11.800      2.14300e+02       5.00387e+01      -3.58968e-01       3.71702e-04       2.28612e+02
 11.900      2.13556e+02       5.05400e+01      -4.43188e-01       3.67339e-04       2.25144e+02
 12.000      2.12848e+02       5.10088e+01      -4.99144e-01       3.62793e-04       2.21621e+02
 12.100      2.12181e+02       5.14366e+01      -5.30341e-01       3.58062e-04       2.18046e+02
 12.200      2.11562e+02       5.18145e+01      -5.40286e-01       3.53145e-04       2.14423e+02
 12.300      2.10994e+02       5.21340e+01      -5.32486e-01       3.48038e-04       2.10756e+02
 12.400      2.10485e+02       5.23863e+01      -5.10448e-01       3.42741e-04       2.07048e+02
 12.500      2.10040e+02       5.25628e+01      -4.77678e-01       3.37256e-04       2.03303e+02
 12.600      2.09665e+02       5.26549e+01      -4.37682e-01       3.31582e-04       1.99525e+02
 12.700      2.09362e+02       5.26574e+01      -3.93190e-01       3.25732e-04       1.95722e+02
 12.800      2.09125e+02       5.25750e+01      -3.44791e-01       3.19742e-04       1.91906e+02
 12.900      2.08950e+02       5.24140e+01      -2.92708e-01       3.13654e-04       1.88094e+02
 13.000      2.08828e+02       5.21807e+01      -2.37161e-01       3.07506e-04       1.84300e+02
 13.100      2.08753e+02       5.18816e+01      -1.78375e-01       3.01333e-04       1.80535e+02
 13.200      2.08719e+02       5.15229e+01      -1.16572e-01       2.95169e-04       1.76814e+02
 13.300      2.08719e+02       5.11110e+01      -5.19723e-02       2.89046e-04       1.73146e+02
 13.400      2.08746e+02       5.06522e+01       1.51992e-02       2.82992e-04       1.69541e+02
 13.500      2.08794e+02       5.01529e+01       8.47219e-02       2.77035e-04       1.66010e+02
 13.600      2.08856e+02       4.96195e+01       1.56373e-01       2.71198e-04       1.62561e+02
 13.700      2.08926e+02       4.90582e+01       2.29929e-01       2.65504e-04       1.59200e+02
 13.800      2.08996e+02       4.84753e+01       3.05169e-01       2.59973e-04       1.55936e+02
 13.900      2.09060e+02       4.78774e+01       3.81869e-01       2.54624e-04       1.52775e+02
 14.000      2.09112e+02       4.72706e+01       4.59809e-01       2.49472e-04       1.49721e+02
 14.100      2.09146e+02       4.66600e+01       5.38788e-01       2.44528e-04       1.46778e+02
 14.200      2.09163e+02       4.60466e+01       6.18675e-01       2.39782e-04       1.43941e+02
 14.300      2.09164e+02       4.54305e+01       6.99355e-01       2.35221e-04       1.41203e+02
 14.400      2.09149e+02       4.48119e+01       7.80708e-01       2.30834e-04       1.38560e+02
 14.500      2.09121e+02       4.41911e+01       8.62619e-01       2.26610e-04       1.36006e+02
 14.600      2.09080e+02       4.35682e+01       9.44971e-01       2.22538e-04       1.33536e+02
 14.700      2.09027e+02       4.29434e+01       1.02764e+00       2.18609e-04       1.31145e+02
 14.800      2.08963e+02       4.23170e+01       1.11052e+00       2.14814e-04       1.28829e+02
 14.900      2.08889e+02       4.16890e+01       1.19349e+00       2.11144e-04       1.26583e+02
 15.000      2.08807e+02       4.10598e+01       1.27643e+00       2.07590e-04       1.24404e+02
 15.100      2.08718e+02       4.04294e+01       1.35923e+00       2.04145e-04       1.22287e+02
 15.200      2.08622e+02       3.97982e+01       1.44176e+00       2.00802e-04       1.20229e+02
 15.300      2.08521e+02       3.91662e+01       1.52391e+00       1.97554e-04       1.18227e+02
 15.400      2.08415e+02       3.85338e+01       1.60556e+00       1.94394e-04       1.16277e+02
 15.500      2.08307e+02       3.79010e+01       1.68660e+00       1.91315e-04       1.14376e+02
 15.600      2.08196e+02       3.72680e+01       1.76691e+00       1.88313e-04       1.12521e+02
 15.700      2.08085e+02       3.66352e+01       1.84637e+00       1.85380e-04       1.10710e+02
 15.800      2.07974e+02       3.60026e+01       1.92486e+00       1.82512e-04       1.08939e+02
 15.900      2.07864e+02       3.53704e+01       2.00227e+00       1.79704e-04       1.07206e+02
 16.000      2.07757e+02       3.47389e+01       2.07847e+00       1.76951e-04       1.05509e+02
 16.100      2.07652e+02       3.41082e+01       2.15336e+00       1.74248e-04       1.03845e+02
 16.200      2.07553e+02       3.34786e+01       2.22682e+00       1.71591e-04       1.02213e+02
 16.300      2.07459e+02       3.28502e+01       2.29872e+00       1.68976e-04       1.00610e+02
 16.400      2.07372e+02       3.22233e+01       2.36896e+00       1.66399e-04       9.90335e+01
 16.500      2.07292e+02       3.15980e+01       2.43752e+00       1.63857e-04       9.74832e+01
 16.600      2.07219e+02       3.09750e+01       2.50444e+00       1.61350e-04       9.59580e+01
 16.700      2.07154e+02       3.03545e+01       2.56976e+00       1.58876e-04       9.44570e+01
 16.800      2.07096e+02       2.97369e+01       2.63354e+00       1.56435e-04       9.29796e+01
 16.900      2.07045e+02       2.91227e+01       2.69583e+00       1.54025e-04       9.15250e+01
 17.000      2.07002e+02       2.85123e+01       2.75666e+00       1.51646e-04       9.00925e+01
 17.100      2.06967e+02       2.79060e+01       2.81610e+00       1.49297e-04       8.86814e+01
 17.200      2.06938e+02       2.73043e+01       2.87418e+00       1.46976e-04       8.72912e+01
 17.300      2.06918e+02       2.67076e+01       2.93094e+00       1.44684e-04       8.59212e+01
 17.400      2.06905e+02       2.61162e+01       2.98645e+00       1.42419e-04       8.45707e+01
 17.500      2.06900e+02       2.55306e+01       3.04075e+00       1.40180e-04       8.32392e+01
 17.600      2.06902e+02       2.49512e+01       3.09387e+00       1.37967e-04       8.19263e+01
 17.700      2.06912e+02       2.43783e+01       3.14588e+00       1.35780e-04       8.06312e+01
 17.800      2.06930e+02       2.38124e+01       3.19681e+00       1.33617e-04       7.93537e+01
 17.900      2.06956e+02       2.32540e+01       3.24672e+00       1.31478e-04       7.80931e+01
 18.000      2.06990e+02       2.27033e+01       3.29565e+00       1.29362e-04       7.68491e+01
 18.100      2.07032e+02       2.21608e+01       3.34365e+00       1.27269e-04       7.56211e+01
 18.200      2.07082e+02       2.16268e+01       3.39076e+00       1.25199e-04       7.44087e+01
 18.300      2.07140e+02       2.11019e+01       3.43704e+00       1.23150e-04       7.32116e+01
 18.400      2.07206e+02       2.05864e+01       3.48252e+00       1.21123e-04       7.20294e+01
 18.500      2.07280e+02       2.00807e+01       3.52727e+00       1.19116e-04       7.08616e+01
 18.600      2.07363e+02       1.95852e+01       3.57131e+00       1.17130e-04       6.97079e+01
 18.700      2.07453e+02       1.91002e+01       3.61461e+00       1.15165e-04       6.85683e+01
 18.800      2.07552e+02       1.86263e+01       3.65692e+00       1.13222e-04       6.74431e+01
 18.900      2.07657e+02       1.81637e+01       3.69797e+00       1.11301e-04       6.63327e+01
 19.000      2.07769e+02       1.77128e+01       3.73751e+00       1.09404e-04       6.52373e+01
 19.100      2.07888e+02       1.72741e+01       3.77527e+00       1.07531e-04       6.41573e+01
 19.200      2.08013e+02       1.68478e+01       3.81099e+00       1.05684e-04       6.30930e+01
 19.300      2.08143e+02       1.64344e+01       3.84439e+00       1.03863e-04       6.20447e+01
 19.400      2.08278e+02       1.60342e+01       3.87524e+00       1.02069e-04       6.10125e+01
 19.500      2.08418e+02       1.56476e+01       3.90325e+00       1.00302e-04       5.99967e+01
 19.600      2.08562e+02       1.52750e+01       3.92816e+00       9.85635e-05       5.89973e+01
 19.700      2.08709e+02       1.49168e+01       3.94972e+00       9.68533e-05       5.80147e+01
 19.800      2.08860e+02       1.45733e+01       3.96766e+00       9.51720e-05       5.70489e+01
 19.900      2.09014e+02       1.42450e+01       3.98172e+00       9.35201e-05       5.60999e+01
 20.000      2.09170e+02       1.39321e+01       3.99163e+00       9.18978e-05       5.51679e+01
 20.100      2.09328e+02       1.36351e+01       3.99713e+00       9.03054e-05       5.42530e+01
 20.200      2.09488e+02       1.33544e+01       3.99796e+00       8.87432e-05       5.33551e+01
 20.300      2.09649e+02       1.30903e+01       3.99385e+00       8.72114e-05       5.24744e+01
