# Data Source: NASA GEOS5 Near-Real-Time
# Model Time = 2010-12-22 18:00:00
# Location = [  39.7393, -104.9900 ]
# Fields = [ Z(km), T(K), U(m/s), V(m/s), R(g/cm3), P(mbar) ]
# Ground Height = 1.589
  0.000      2.86771e+02       1.80453e+00       1.73583e+00       1.24122e-03       1.02156e+03
  0.100      2.86121e+02       1.80253e+00       1.73331e+00       1.22924e-03       1.00941e+03
  0.200      2.85471e+02       1.80447e+00       1.72233e+00       1.21740e-03       9.97413e+02
  0.300      2.84820e+02       1.80532e+00       1.71369e+00       1.20567e-03       9.85555e+02
  0.400      2.84170e+02       1.80004e+00       1.71818e+00       1.19404e-03       9.73822e+02
  0.500      2.83513e+02       1.78725e+00       1.73410e+00       1.18253e-03       9.62201e+02
  0.600      2.82825e+02       1.77636e+00       1.72263e+00       1.17122e-03       9.50692e+02
  0.700      2.82082e+02       1.77398e+00       1.65371e+00       1.16023e-03       9.39293e+02
  0.800      2.81286e+02       1.76372e+00       1.57183e+00       1.14953e-03       9.28001e+02
  0.900      2.80448e+02       1.72669e+00       1.53647e+00       1.13906e-03       9.16812e+02
  1.000      2.79636e+02       1.68419e+00       1.53911e+00       1.12855e-03       9.05724e+02
  1.100      2.78941e+02       1.67751e+00       1.53511e+00       1.11764e-03       8.94738e+02
  1.200      2.78374e+02       1.70527e+00       1.49513e+00       1.10630e-03       8.83857e+02
  1.300      2.77862e+02       1.72087e+00       1.40638e+00       1.09483e-03       8.73088e+02
  1.400      2.77331e+02       1.68800e+00       1.27699e+00       1.08354e-03       8.62435e+02
  1.500      2.76717e+02       1.59975e+00       1.16291e+00       1.07267e-03       8.51892e+02
  1.600      2.75969e+02       1.46002e+00       1.12489e+00       1.06240e-03       8.41455e+02
  1.700      2.75131e+02       1.31783e+00       1.20880e+00       1.05255e-03       8.31119e+02
  1.800      2.74288e+02       1.24096e+00       1.45289e+00       1.04277e-03       8.20877e+02
  1.900      2.73555e+02       1.28120e+00       1.84499e+00       1.03264e-03       8.10732e+02
  2.000      2.73091e+02       1.46971e+00       2.30809e+00       1.02159e-03       8.00690e+02
  2.100      2.73006e+02       1.81891e+00       2.76613e+00       1.00924e-03       7.90763e+02
  2.200      2.73177e+02       2.25583e+00       3.16875e+00       9.96098e-04       7.80957e+02
  2.300      2.73408e+02       2.68200e+00       3.47454e+00       9.82925e-04       7.71283e+02
  2.400      2.73588e+02       3.03179e+00       3.68468e+00       9.70125e-04       7.61740e+02
  2.500      2.73715e+02       3.28382e+00       3.85783e+00       9.57686e-04       7.52321e+02
  2.600      2.73790e+02       3.42416e+00       4.05010e+00       9.45582e-04       7.43017e+02
  2.700      2.73771e+02       3.47635e+00       4.26027e+00       9.33951e-04       7.33825e+02
  2.800      2.73592e+02       3.48314e+00       4.45778e+00       9.22997e-04       7.24746e+02
  2.900      2.73218e+02       3.48281e+00       4.61795e+00       9.12825e-04       7.15778e+02
  3.000      2.72714e+02       3.49665e+00       4.73866e+00       9.03181e-04       7.06911e+02
  3.100      2.72173e+02       3.54209e+00       4.82302e+00       8.93740e-04       6.98133e+02
  3.200      2.71661e+02       3.63837e+00       4.87686e+00       8.84275e-04       6.89439e+02
  3.300      2.71193e+02       3.80867e+00       4.91200e+00       8.74745e-04       6.80836e+02
  3.400      2.70781e+02       4.07651e+00       4.94086e+00       8.65133e-04       6.72329e+02
  3.500      2.70411e+02       4.45230e+00       4.96534e+00       8.55483e-04       6.63923e+02
  3.600      2.70041e+02       4.92517e+00       4.97022e+00       8.45932e-04       6.55613e+02
  3.700      2.69624e+02       5.48229e+00       4.93893e+00       8.36619e-04       6.47394e+02
  3.800      2.69133e+02       6.10913e+00       4.87055e+00       8.27616e-04       6.39261e+02
  3.900      2.68574e+02       6.78847e+00       4.78937e+00       8.18899e-04       6.31214e+02
  4.000      2.67956e+02       7.50285e+00       4.72196e+00       8.10433e-04       6.23250e+02
  4.100      2.67290e+02       8.23647e+00       4.68611e+00       8.02177e-04       6.15368e+02
  4.200      2.66594e+02       8.97705e+00       4.68132e+00       7.94073e-04       6.07566e+02
  4.300      2.65888e+02       9.71273e+00       4.70472e+00       7.86061e-04       5.99843e+02
  4.400      2.65186e+02       1.04306e+01       4.75391e+00       7.78100e-04       5.92199e+02
  4.500      2.64485e+02       1.11137e+01       4.82815e+00       7.70193e-04       5.84632e+02
  4.600      2.63780e+02       1.17443e+01       4.92711e+00       7.62359e-04       5.77143e+02
  4.700      2.63065e+02       1.23064e+01       5.04981e+00       7.54613e-04       5.69730e+02
  4.800      2.62342e+02       1.28026e+01       5.18903e+00       7.46948e-04       5.62393e+02
  4.900      2.61615e+02       1.32465e+01       5.33395e+00       7.39350e-04       5.55130e+02
  5.000      2.60889e+02       1.36514e+01       5.47379e+00       7.31803e-04       5.47939e+02
  5.100      2.60169e+02       1.40284e+01       5.60431e+00       7.24296e-04       5.40820e+02
  5.200      2.59456e+02       1.43841e+01       5.73274e+00       7.16824e-04       5.33774e+02
  5.300      2.58752e+02       1.47248e+01       5.86749e+00       7.09384e-04       5.26801e+02
  5.400      2.58059e+02       1.50560e+01       6.01642e+00       7.01973e-04       5.19903e+02
  5.500      2.57378e+02       1.53798e+01       6.18265e+00       6.94593e-04       5.13078e+02
  5.600      2.56705e+02       1.56959e+01       6.36680e+00       6.87248e-04       5.06326e+02
  5.700      2.56039e+02       1.60041e+01       6.56943e+00       6.79944e-04       4.99645e+02
  5.800      2.55377e+02       1.63045e+01       6.79063e+00       6.72687e-04       4.93034e+02
  5.900      2.54713e+02       1.65980e+01       7.02863e+00       6.65492e-04       4.86492e+02
  6.000      2.54040e+02       1.68855e+01       7.28132e+00       6.58378e-04       4.80020e+02
  6.100      2.53351e+02       1.71683e+01       7.54655e+00       6.51360e-04       4.73616e+02
  6.200      2.52642e+02       1.74492e+01       7.82136e+00       6.44450e-04       4.67279e+02
  6.300      2.51912e+02       1.77355e+01       8.10095e+00       6.37647e-04       4.61010e+02
  6.400      2.51160e+02       1.80349e+01       8.38029e+00       6.30950e-04       4.54808e+02
  6.500      2.50389e+02       1.83552e+01       8.65438e+00       6.24357e-04       4.48673e+02
  6.600      2.49598e+02       1.87010e+01       8.91965e+00       6.17862e-04       4.42603e+02
  6.700      2.48792e+02       1.90712e+01       9.17556e+00       6.11453e-04       4.36598e+02
  6.800      2.47976e+02       1.94634e+01       9.42199e+00       6.05115e-04       4.30655e+02
  6.900      2.47153e+02       1.98757e+01       9.65881e+00       5.98837e-04       4.24772e+02
  7.000      2.46328e+02       2.03064e+01       9.88597e+00       5.92605e-04       4.18948e+02
  7.100      2.45503e+02       2.07567e+01       1.01037e+01       5.86416e-04       4.13184e+02
  7.200      2.44680e+02       2.12278e+01       1.03123e+01       5.80263e-04       4.07479e+02
  7.300      2.43862e+02       2.17213e+01       1.05120e+01       5.74145e-04       4.01835e+02
  7.400      2.43051e+02       2.22383e+01       1.07030e+01       5.68056e-04       3.96251e+02
  7.500      2.42245e+02       2.27763e+01       1.08838e+01       5.62000e-04       3.90727e+02
  7.600      2.41444e+02       2.33303e+01       1.10517e+01       5.55979e-04       3.85263e+02
  7.700      2.40646e+02       2.38952e+01       1.12043e+01       5.49999e-04       3.79858e+02
  7.800      2.39847e+02       2.44663e+01       1.13390e+01       5.44064e-04       3.74512e+02
  7.900      2.39047e+02       2.50395e+01       1.14548e+01       5.38177e-04       3.69225e+02
  8.000      2.38244e+02       2.56147e+01       1.15562e+01       5.32343e-04       3.63994e+02
  8.100      2.37436e+02       2.61923e+01       1.16486e+01       5.26561e-04       3.58821e+02
  8.200      2.36623e+02       2.67725e+01       1.17375e+01       5.20836e-04       3.53703e+02
  8.300      2.35802e+02       2.73559e+01       1.18282e+01       5.15167e-04       3.48641e+02
  8.400      2.34974e+02       2.79468e+01       1.19273e+01       5.09558e-04       3.43634e+02
  8.500      2.34138e+02       2.85570e+01       1.20433e+01       5.04006e-04       3.38681e+02
  8.600      2.33295e+02       2.91990e+01       1.21851e+01       4.98510e-04       3.33781e+02
  8.700      2.32445e+02       2.98854e+01       1.23612e+01       4.93071e-04       3.28936e+02
  8.800      2.31588e+02       3.06286e+01       1.25805e+01       4.87685e-04       3.24143e+02
  8.900      2.30726e+02       3.14327e+01       1.28499e+01       4.82349e-04       3.19403e+02
  9.000      2.29865e+02       3.22819e+01       1.31719e+01       4.77050e-04       3.14715e+02
  9.100      2.29012e+02       3.31576e+01       1.35486e+01       4.71774e-04       3.10080e+02
  9.200      2.28173e+02       3.40412e+01       1.39819e+01       4.66509e-04       3.05496e+02
  9.300      2.27356e+02       3.49140e+01       1.44736e+01       4.61240e-04       3.00964e+02
  9.400      2.26566e+02       3.57584e+01       1.50244e+01       4.55958e-04       2.96484e+02
  9.500      2.25805e+02       3.65665e+01       1.56231e+01       4.50658e-04       2.92054e+02
  9.600      2.25076e+02       3.73344e+01       1.62536e+01       4.45343e-04       2.87677e+02
  9.700      2.24378e+02       3.80583e+01       1.68995e+01       4.40013e-04       2.83353e+02
  9.800      2.23712e+02       3.87345e+01       1.75443e+01       4.34670e-04       2.79081e+02
  9.900      2.23078e+02       3.93590e+01       1.81718e+01       4.29313e-04       2.74862e+02
 10.000      2.22478e+02       3.99291e+01       1.87664e+01       4.23948e-04       2.70695e+02
 10.100      2.21906e+02       4.04453e+01       1.93149e+01       4.18582e-04       2.66582e+02
 10.200      2.21358e+02       4.09085e+01       1.98048e+01       4.13225e-04       2.62521e+02
 10.300      2.20830e+02       4.13200e+01       2.02236e+01       4.07888e-04       2.58513e+02
 10.400      2.20318e+02       4.16809e+01       2.05587e+01       4.02580e-04       2.54556e+02
 10.500      2.19815e+02       4.19924e+01       2.07977e+01       3.97310e-04       2.50651e+02
 10.600      2.19319e+02       4.22556e+01       2.09313e+01       3.92086e-04       2.46797e+02
 10.700      2.18824e+02       4.24723e+01       2.09724e+01       3.86917e-04       2.42994e+02
 10.800      2.18325e+02       4.26442e+01       2.09427e+01       3.81811e-04       2.39240e+02
 10.900      2.17817e+02       4.27730e+01       2.08641e+01       3.76775e-04       2.35535e+02
 11.000      2.17296e+02       4.28606e+01       2.07586e+01       3.71815e-04       2.31879e+02
 11.100      2.16757e+02       4.29087e+01       2.06479e+01       3.66940e-04       2.28271e+02
 11.200      2.16194e+02       4.29192e+01       2.05539e+01       3.62155e-04       2.24709e+02
 11.300      2.15606e+02       4.28963e+01       2.04919e+01       3.57462e-04       2.21194e+02
 11.400      2.14997e+02       4.28520e+01       2.04561e+01       3.52852e-04       2.17725e+02
 11.500      2.14374e+02       4.28000e+01       2.04369e+01       3.48312e-04       2.14300e+02
 11.600      2.13744e+02       4.27538e+01       2.04245e+01       3.43829e-04       2.10921e+02
 11.700      2.13114e+02       4.27269e+01       2.04093e+01       3.39394e-04       2.07586e+02
 11.800      2.12489e+02       4.27329e+01       2.03816e+01       3.34994e-04       2.04294e+02
 11.900      2.11877e+02       4.27853e+01       2.03315e+01       3.30620e-04       2.01046e+02
 12.000      2.11284e+02       4.28958e+01       2.02504e+01       3.26261e-04       1.97840e+02
 12.100      2.10714e+02       4.30529e+01       2.01392e+01       3.21914e-04       1.94677e+02
 12.200      2.10168e+02       4.32309e+01       2.00056e+01       3.17576e-04       1.91556e+02
 12.300      2.09649e+02       4.34039e+01       1.98569e+01       3.13246e-04       1.88478e+02
 12.400      2.09157e+02       4.35458e+01       1.97007e+01       3.08923e-04       1.85441e+02
 12.500      2.08695e+02       4.36306e+01       1.95446e+01       3.04606e-04       1.82446e+02
 12.600      2.08265e+02       4.36325e+01       1.93961e+01       3.00295e-04       1.79492e+02
 12.700      2.07868e+02       4.35254e+01       1.92628e+01       2.95987e-04       1.76580e+02
 12.800      2.07505e+02       4.32841e+01       1.91518e+01       2.91682e-04       1.73709e+02
 12.900      2.07180e+02       4.29071e+01       1.90633e+01       2.87381e-04       1.70879e+02
 13.000      2.06893e+02       4.24193e+01       1.89892e+01       2.83084e-04       1.68091e+02
 13.100      2.06647e+02       4.18475e+01       1.89209e+01       2.78792e-04       1.65345e+02
 13.200      2.06443e+02       4.12180e+01       1.88499e+01       2.74506e-04       1.62643e+02
 13.300      2.06283e+02       4.05576e+01       1.87677e+01       2.70227e-04       1.59983e+02
 13.400      2.06170e+02       3.98927e+01       1.86657e+01       2.65956e-04       1.57368e+02
 13.500      2.06104e+02       3.92500e+01       1.85354e+01       2.61693e-04       1.54797e+02
 13.600      2.06089e+02       3.86558e+01       1.83682e+01       2.57441e-04       1.52270e+02
 13.700      2.06125e+02       3.81369e+01       1.81556e+01       2.53200e-04       1.49787e+02
 13.800      2.06212e+02       3.77109e+01       1.78922e+01       2.48973e-04       1.47349e+02
 13.900      2.06344e+02       3.73682e+01       1.75820e+01       2.44769e-04       1.44954e+02
 14.000      2.06513e+02       3.70938e+01       1.72310e+01       2.40596e-04       1.42600e+02
 14.100      2.06711e+02       3.68730e+01       1.68453e+01       2.36464e-04       1.40285e+02
 14.200      2.06930e+02       3.66908e+01       1.64307e+01       2.32380e-04       1.38008e+02
 14.300      2.07162e+02       3.65323e+01       1.59932e+01       2.28352e-04       1.35768e+02
 14.400      2.07399e+02       3.63826e+01       1.55388e+01       2.24386e-04       1.33563e+02
 14.500      2.07633e+02       3.62269e+01       1.50734e+01       2.20489e-04       1.31391e+02
 14.600      2.07856e+02       3.60502e+01       1.46031e+01       2.16666e-04       1.29252e+02
 14.700      2.08061e+02       3.58376e+01       1.41337e+01       2.12923e-04       1.27144e+02
 14.800      2.08239e+02       3.55743e+01       1.36712e+01       2.09264e-04       1.25065e+02
 14.900      2.08384e+02       3.52485e+01       1.32207e+01       2.05692e-04       1.23016e+02
 15.000      2.08497e+02       3.48627e+01       1.27830e+01       2.02206e-04       1.20997e+02
 15.100      2.08581e+02       3.44232e+01       1.23576e+01       1.98802e-04       1.19008e+02
 15.200      2.08639e+02       3.39363e+01       1.19443e+01       1.95478e-04       1.17051e+02
 15.300      2.08675e+02       3.34082e+01       1.15427e+01       1.92230e-04       1.15126e+02
 15.400      2.08690e+02       3.28453e+01       1.11525e+01       1.89055e-04       1.13233e+02
 15.500      2.08690e+02       3.22538e+01       1.07732e+01       1.85951e-04       1.11373e+02
 15.600      2.08675e+02       3.16401e+01       1.04047e+01       1.82915e-04       1.09547e+02
 15.700      2.08650e+02       3.10105e+01       1.00465e+01       1.79946e-04       1.07756e+02
 15.800      2.08617e+02       3.03711e+01       9.69827e+00       1.77039e-04       1.05999e+02
 15.900      2.08579e+02       2.97284e+01       9.35967e+00       1.74194e-04       1.04276e+02
 16.000      2.08540e+02       2.90887e+01       9.03036e+00       1.71407e-04       1.02589e+02
 16.100      2.08503e+02       2.84581e+01       8.70999e+00       1.68678e-04       1.00937e+02
 16.200      2.08470e+02       2.78430e+01       8.39821e+00       1.66003e-04       9.93206e+01
 16.300      2.08443e+02       2.72467e+01       8.09481e+00       1.63380e-04       9.77389e+01
 16.400      2.08421e+02       2.66688e+01       7.79966e+00       1.60808e-04       9.61904e+01
 16.500      2.08405e+02       2.61090e+01       7.51266e+00       1.58284e-04       9.46734e+01
 16.600      2.08394e+02       2.55667e+01       7.23371e+00       1.55806e-04       9.31863e+01
 16.700      2.08387e+02       2.50415e+01       6.96273e+00       1.53373e-04       9.17276e+01
 16.800      2.08384e+02       2.45329e+01       6.69960e+00       1.50981e-04       9.02961e+01
 16.900      2.08384e+02       2.40404e+01       6.44423e+00       1.48630e-04       8.88902e+01
 17.000      2.08387e+02       2.35637e+01       6.19652e+00       1.46318e-04       8.75086e+01
 17.100      2.08393e+02       2.31022e+01       5.95636e+00       1.44042e-04       8.61502e+01
 17.200      2.08402e+02       2.26554e+01       5.72367e+00       1.41802e-04       8.48138e+01
 17.300      2.08411e+02       2.22230e+01       5.49834e+00       1.39596e-04       8.34982e+01
 17.400      2.08422e+02       2.18043e+01       5.28026e+00       1.37423e-04       8.22024e+01
 17.500      2.08434e+02       2.13990e+01       5.06935e+00       1.35280e-04       8.09254e+01
 17.600      2.08446e+02       2.10066e+01       4.86550e+00       1.33167e-04       7.96661e+01
 17.700      2.08458e+02       2.06266e+01       4.66861e+00       1.31083e-04       7.84237e+01
 17.800      2.08470e+02       2.02586e+01       4.47859e+00       1.29026e-04       7.71973e+01
 17.900      2.08480e+02       1.99020e+01       4.29533e+00       1.26995e-04       7.59861e+01
 18.000      2.08489e+02       1.95565e+01       4.11873e+00       1.24989e-04       7.47892e+01
 18.100      2.08496e+02       1.92215e+01       3.94870e+00       1.23008e-04       7.36060e+01
 18.200      2.08501e+02       1.88967e+01       3.78513e+00       1.21049e-04       7.24357e+01
 18.300      2.08503e+02       1.85814e+01       3.62793e+00       1.19113e-04       7.12777e+01
 18.400      2.08502e+02       1.82753e+01       3.47700e+00       1.17198e-04       7.01313e+01
 18.500      2.08498e+02       1.79779e+01       3.33220e+00       1.15303e-04       6.89961e+01
 18.600      2.08490e+02       1.76890e+01       3.19323e+00       1.13430e-04       6.78725e+01
 18.700      2.08478e+02       1.74084e+01       3.05972e+00       1.11579e-04       6.67611e+01
 18.800      2.08464e+02       1.71360e+01       2.93128e+00       1.09750e-04       6.56625e+01
 18.900      2.08446e+02       1.68715e+01       2.80756e+00       1.07945e-04       6.45772e+01
 19.000      2.08426e+02       1.66148e+01       2.68817e+00       1.06165e-04       6.35058e+01
 19.100      2.08403e+02       1.63657e+01       2.57275e+00       1.04409e-04       6.24487e+01
 19.200      2.08378e+02       1.61241e+01       2.46093e+00       1.02678e-04       6.14063e+01
 19.300      2.08351e+02       1.58897e+01       2.35232e+00       1.00974e-04       6.03790e+01
 19.400      2.08321e+02       1.56625e+01       2.24657e+00       9.92959e-05       5.93673e+01
 19.500      2.08291e+02       1.54422e+01       2.14329e+00       9.76444e-05       5.83712e+01
 19.600      2.08258e+02       1.52287e+01       2.04211e+00       9.60201e-05       5.73913e+01
 19.700      2.08224e+02       1.50217e+01       1.94267e+00       9.44233e-05       5.64277e+01
 19.800      2.08189e+02       1.48212e+01       1.84459e+00       9.28542e-05       5.54807e+01
 19.900      2.08153e+02       1.46269e+01       1.74750e+00       9.13130e-05       5.45504e+01
 20.000      2.08117e+02       1.44387e+01       1.65103e+00       8.97999e-05       5.36371e+01
 20.100      2.08080e+02       1.42564e+01       1.55480e+00       8.83151e-05       5.27408e+01
 20.200      2.08042e+02       1.40798e+01       1.45844e+00       8.68586e-05       5.18617e+01
 20.300      2.08005e+02       1.39088e+01       1.36158e+00       8.54307e-05       5.09998e+01
