# Data Source: NASA MERRA (version 2)
# Model Time = 2011-12-27 18:00:00
# Location = [  39.1026,  -84.5123 ]
# Fields = [ Z(km), T(K), U(m/s), V(m/s), R(g/cm3), P(mbar) ]
# Ground Height = 0.165
  0.000      2.77231e+02       9.03278e+00      -9.61955e-01       1.25615e-03       9.99462e+02
  0.100      2.76665e+02       8.63994e+00      -9.88109e-01       1.24332e-03       9.87231e+02
  0.200      2.76030e+02       8.86547e+00      -8.50493e-01       1.23092e-03       9.75137e+02
  0.300      2.75286e+02       1.00923e+01      -4.87703e-01       1.21909e-03       9.63169e+02
  0.400      2.74516e+02       1.18360e+01      -2.33685e-01       1.20747e-03       9.51321e+02
  0.500      2.73818e+02       1.34524e+01      -4.52758e-01       1.19562e-03       9.39587e+02
  0.600      2.73196e+02       1.46605e+01      -1.10573e+00       1.18352e-03       9.27963e+02
  0.700      2.72626e+02       1.53259e+01      -2.00735e+00       1.17127e-03       9.16448e+02
  0.800      2.72120e+02       1.54956e+01      -2.92426e+00       1.15886e-03       9.05048e+02
  0.900      2.71705e+02       1.53097e+01      -3.60613e+00       1.14617e-03       8.93775e+02
  1.000      2.71375e+02       1.48791e+01      -3.95014e+00       1.13326e-03       8.82634e+02
  1.100      2.71090e+02       1.42885e+01      -3.98187e+00       1.12030e-03       8.71622e+02
  1.200      2.70811e+02       1.36219e+01      -3.73119e+00       1.10744e-03       8.60734e+02
  1.300      2.70501e+02       1.29631e+01      -3.22797e+00       1.09485e-03       8.49970e+02
  1.400      2.70130e+02       1.23822e+01      -2.50534e+00       1.08262e-03       8.39325e+02
  1.500      2.69717e+02       1.18938e+01      -1.60943e+00       1.07068e-03       8.28799e+02
  1.600      2.69292e+02       1.14989e+01      -5.89603e-01       1.05890e-03       8.18391e+02
  1.700      2.68883e+02       1.11984e+01       5.04800e-01       1.04718e-03       8.08099e+02
  1.800      2.68519e+02       1.09934e+01       1.62443e+00       1.03539e-03       7.97922e+02
  1.900      2.68215e+02       1.08802e+01       2.72149e+00       1.02349e-03       7.87860e+02
  2.000      2.67952e+02       1.08456e+01       3.75153e+00       1.01156e-03       7.77912e+02
  2.100      2.67706e+02       1.08747e+01       4.67056e+00       9.99691e-04       7.68079e+02
  2.200      2.67454e+02       1.09527e+01       5.43459e+00       9.87974e-04       7.58361e+02
  2.300      2.67171e+02       1.10651e+01       5.99969e+00       9.76493e-04       7.48757e+02
  2.400      2.66847e+02       1.12018e+01       6.35074e+00       9.65291e-04       7.39268e+02
  2.500      2.66496e+02       1.13653e+01       6.55121e+00       9.54302e-04       7.29891e+02
  2.600      2.66140e+02       1.15607e+01       6.67777e+00       9.43443e-04       7.20623e+02
  2.700      2.65801e+02       1.17927e+01       6.80713e+00       9.32638e-04       7.11463e+02
  2.800      2.65501e+02       1.20662e+01       7.01595e+00       9.21810e-04       7.02408e+02
  2.900      2.65256e+02       1.23839e+01       7.37223e+00       9.10901e-04       6.93456e+02
  3.000      2.65051e+02       1.27302e+01       7.86336e+00       8.99971e-04       6.84605e+02
  3.100      2.64852e+02       1.30789e+01       8.43320e+00       8.89139e-04       6.75856e+02
  3.200      2.64622e+02       1.34041e+01       9.02517e+00       8.78521e-04       6.67208e+02
  3.300      2.64329e+02       1.36797e+01       9.58270e+00       8.68227e-04       6.58658e+02
  3.400      2.63937e+02       1.38798e+01       1.00492e+01       8.58362e-04       6.50208e+02
  3.500      2.63420e+02       1.39845e+01       1.03788e+01       8.48997e-04       6.41855e+02
  3.600      2.62793e+02       1.40013e+01       1.05718e+01       8.40071e-04       6.33596e+02
  3.700      2.62083e+02       1.39449e+01       1.06407e+01       8.31488e-04       6.25426e+02
  3.800      2.61313e+02       1.38300e+01       1.05984e+01       8.23160e-04       6.17343e+02
  3.900      2.60510e+02       1.36714e+01       1.04573e+01       8.14996e-04       6.09343e+02
  4.000      2.59699e+02       1.34838e+01       1.02302e+01       8.06913e-04       6.01422e+02
  4.100      2.58903e+02       1.32798e+01       9.93049e+00       7.98835e-04       5.93576e+02
  4.200      2.58131e+02       1.30568e+01       9.57691e+00       7.90739e-04       5.85807e+02
  4.300      2.57382e+02       1.28058e+01       9.19045e+00       7.82627e-04       5.78115e+02
  4.400      2.56658e+02       1.25180e+01       8.79211e+00       7.74498e-04       5.70502e+02
  4.500      2.55960e+02       1.21843e+01       8.40289e+00       7.66353e-04       5.62967e+02
  4.600      2.55289e+02       1.17957e+01       8.04379e+00       7.58193e-04       5.55512e+02
  4.700      2.54646e+02       1.13434e+01       7.73570e+00       7.50019e-04       5.48138e+02
  4.800      2.54029e+02       1.08277e+01       7.48567e+00       7.41837e-04       5.40845e+02
  4.900      2.53431e+02       1.02667e+01       7.27419e+00       7.33669e-04       5.33633e+02
  5.000      2.52847e+02       9.68057e+00       7.07873e+00       7.25537e-04       5.26501e+02
  5.100      2.52267e+02       9.08944e+00       6.87674e+00       7.17462e-04       5.19448e+02
  5.200      2.51687e+02       8.51345e+00       6.64570e+00       7.09464e-04       5.12475e+02
  5.300      2.51097e+02       7.97273e+00       6.36307e+00       7.01562e-04       5.05580e+02
  5.400      2.50492e+02       7.48740e+00       6.00638e+00       6.93776e-04       4.98763e+02
  5.500      2.49866e+02       7.07334e+00       5.57041e+00       6.86117e-04       4.92024e+02
  5.600      2.49219e+02       6.73648e+00       5.09042e+00       6.78579e-04       4.85359e+02
  5.700      2.48553e+02       6.48130e+00       4.60746e+00       6.71156e-04       4.78767e+02
  5.800      2.47869e+02       6.31230e+00       4.16258e+00       6.63841e-04       4.72246e+02
  5.900      2.47168e+02       6.23398e+00       3.79684e+00       6.56627e-04       4.65792e+02
  6.000      2.46450e+02       6.25085e+00       3.55127e+00       6.49509e-04       4.59405e+02
  6.100      2.45717e+02       6.36738e+00       3.46695e+00       6.42480e-04       4.53082e+02
  6.200      2.44970e+02       6.58752e+00       3.58321e+00       6.35535e-04       4.46821e+02
  6.300      2.44212e+02       6.90261e+00       3.90212e+00       6.28664e-04       4.40624e+02
  6.400      2.43450e+02       7.29172e+00       4.38927e+00       6.21858e-04       4.34493e+02
  6.500      2.42688e+02       7.73339e+00       5.00873e+00       6.15105e-04       4.28430e+02
  6.600      2.41934e+02       8.20619e+00       5.72459e+00       6.08396e-04       4.22439e+02
  6.700      2.41192e+02       8.68868e+00       6.50092e+00       6.01720e-04       4.16523e+02
  6.800      2.40468e+02       9.15940e+00       7.30180e+00       5.95068e-04       4.10682e+02
  6.900      2.39769e+02       9.59690e+00       8.09130e+00       5.88430e-04       4.04920e+02
  7.000      2.39100e+02       9.97976e+00       8.83353e+00       5.81798e-04       3.99239e+02
  7.100      2.38466e+02       1.02936e+01       9.50452e+00       5.75159e-04       3.93638e+02
  7.200      2.37870e+02       1.05429e+01       1.01124e+01       5.68502e-04       3.88108e+02
  7.300      2.37313e+02       1.07353e+01       1.06707e+01       5.61810e-04       3.82642e+02
  7.400      2.36798e+02       1.08785e+01       1.11927e+01       5.55070e-04       3.77231e+02
  7.500      2.36326e+02       1.09801e+01       1.16921e+01       5.48270e-04       3.71867e+02
  7.600      2.35900e+02       1.10479e+01       1.21822e+01       5.41397e-04       3.66544e+02
  7.700      2.35522e+02       1.10894e+01       1.26765e+01       5.34441e-04       3.61255e+02
  7.800      2.35194e+02       1.11122e+01       1.31885e+01       5.27391e-04       3.55992e+02
  7.900      2.34917e+02       1.11242e+01       1.37315e+01       5.20238e-04       3.50751e+02
  8.000      2.34694e+02       1.11324e+01       1.43168e+01       5.12980e-04       3.45528e+02
  8.100      2.34517e+02       1.11407e+01       1.49402e+01       5.05663e-04       3.40343e+02
  8.200      2.34378e+02       1.11519e+01       1.55920e+01       4.98348e-04       3.35220e+02
  8.300      2.34268e+02       1.11687e+01       1.62626e+01       4.91091e-04       3.30184e+02
  8.400      2.34179e+02       1.11939e+01       1.69420e+01       4.83946e-04       3.25257e+02
  8.500      2.34101e+02       1.12302e+01       1.76208e+01       4.76964e-04       3.20458e+02
  8.600      2.34027e+02       1.12803e+01       1.82890e+01       4.70193e-04       3.15809e+02
  8.700      2.33948e+02       1.13469e+01       1.89369e+01       4.63678e-04       3.11328e+02
  8.800      2.33854e+02       1.14328e+01       1.95549e+01       4.57462e-04       3.07031e+02
  8.900      2.33738e+02       1.15408e+01       2.01331e+01       4.51585e-04       3.02935e+02
  9.000      2.33590e+02       1.16735e+01       2.06619e+01       4.46084e-04       2.99056e+02
  9.100      2.33405e+02       1.18324e+01       2.11350e+01       4.40972e-04       2.95396e+02
  9.200      2.33187e+02       1.20166e+01       2.15528e+01       4.36210e-04       2.91932e+02
  9.300      2.32939e+02       1.22247e+01       2.19166e+01       4.31754e-04       2.88643e+02
  9.400      2.32665e+02       1.24554e+01       2.22275e+01       4.27566e-04       2.85507e+02
  9.500      2.32368e+02       1.27077e+01       2.24869e+01       4.23606e-04       2.82501e+02
  9.600      2.32052e+02       1.29800e+01       2.26958e+01       4.19838e-04       2.79607e+02
  9.700      2.31720e+02       1.32713e+01       2.28556e+01       4.16225e-04       2.76805e+02
  9.800      2.31376e+02       1.35802e+01       2.29675e+01       4.12735e-04       2.74076e+02
  9.900      2.31024e+02       1.39055e+01       2.30326e+01       4.09333e-04       2.71404e+02
 10.000      2.30668e+02       1.42458e+01       2.30523e+01       4.05987e-04       2.68770e+02
 10.100      2.30310e+02       1.46000e+01       2.30276e+01       4.02666e-04       2.66158e+02
 10.200      2.29955e+02       1.49667e+01       2.29599e+01       3.99341e-04       2.63553e+02
 10.300      2.29606e+02       1.53448e+01       2.28504e+01       3.95982e-04       2.60939e+02
 10.400      2.29267e+02       1.57328e+01       2.27002e+01       3.92560e-04       2.58302e+02
 10.500      2.28941e+02       1.61296e+01       2.25106e+01       3.89048e-04       2.55628e+02
 10.600      2.28632e+02       1.65340e+01       2.22829e+01       3.85422e-04       2.52904e+02
 10.700      2.28344e+02       1.69445e+01       2.20182e+01       3.81654e-04       2.50116e+02
 10.800      2.28079e+02       1.73600e+01       2.17181e+01       3.77727e-04       2.47255e+02
 10.900      2.27837e+02       1.77792e+01       2.13859e+01       3.73644e-04       2.44322e+02
 11.000      2.27614e+02       1.82008e+01       2.10254e+01       3.69415e-04       2.41321e+02
 11.100      2.27409e+02       1.86237e+01       2.06404e+01       3.65050e-04       2.38255e+02
 11.200      2.27219e+02       1.90464e+01       2.02345e+01       3.60560e-04       2.35128e+02
 11.300      2.27043e+02       1.94678e+01       1.98116e+01       3.55954e-04       2.31944e+02
 11.400      2.26877e+02       1.98866e+01       1.93755e+01       3.51242e-04       2.28707e+02
 11.500      2.26720e+02       2.03016e+01       1.89298e+01       3.46434e-04       2.25419e+02
 11.600      2.26569e+02       2.07115e+01       1.84784e+01       3.41539e-04       2.22086e+02
 11.700      2.26422e+02       2.11150e+01       1.80249e+01       3.36566e-04       2.18711e+02
 11.800      2.26277e+02       2.15109e+01       1.75733e+01       3.31526e-04       2.15298e+02
 11.900      2.26131e+02       2.18979e+01       1.71272e+01       3.26427e-04       2.11850e+02
 12.000      2.25982e+02       2.22748e+01       1.66903e+01       3.21277e-04       2.08370e+02
 12.100      2.25828e+02       2.26402e+01       1.62666e+01       3.16086e-04       2.04864e+02
 12.200      2.25667e+02       2.29930e+01       1.58596e+01       3.10861e-04       2.01334e+02
 12.300      2.25496e+02       2.33320e+01       1.54731e+01       3.05611e-04       1.97783e+02
 12.400      2.25315e+02       2.36564e+01       1.51082e+01       3.00349e-04       1.94222e+02
 12.500      2.25126e+02       2.39662e+01       1.47648e+01       2.95090e-04       1.90661e+02
 12.600      2.24928e+02       2.42611e+01       1.44423e+01       2.89850e-04       1.87111e+02
 12.700      2.24723e+02       2.45410e+01       1.41405e+01       2.84643e-04       1.83582e+02
 12.800      2.24513e+02       2.48056e+01       1.38588e+01       2.79481e-04       1.80084e+02
 12.900      2.24298e+02       2.50549e+01       1.35970e+01       2.74376e-04       1.76626e+02
 13.000      2.24079e+02       2.52887e+01       1.33547e+01       2.69341e-04       1.73215e+02
 13.100      2.23857e+02       2.55066e+01       1.31315e+01       2.64385e-04       1.69859e+02
 13.200      2.23634e+02       2.57087e+01       1.29269e+01       2.59518e-04       1.66566e+02
 13.300      2.23409e+02       2.58946e+01       1.27407e+01       2.54749e-04       1.63341e+02
 13.400      2.23185e+02       2.60643e+01       1.25724e+01       2.50087e-04       1.60191e+02
 13.500      2.22962e+02       2.62176e+01       1.24217e+01       2.45537e-04       1.57120e+02
 13.600      2.22742e+02       2.63542e+01       1.22881e+01       2.41108e-04       1.54133e+02
 13.700      2.22525e+02       2.64740e+01       1.21713e+01       2.36806e-04       1.51235e+02
 13.800      2.22312e+02       2.65768e+01       1.20709e+01       2.32635e-04       1.48429e+02
 13.900      2.22104e+02       2.66628e+01       1.19860e+01       2.28594e-04       1.45714e+02
 14.000      2.21900e+02       2.67324e+01       1.19151e+01       2.24678e-04       1.43087e+02
 14.100      2.21700e+02       2.67859e+01       1.18570e+01       2.20879e-04       1.40541e+02
 14.200      2.21505e+02       2.68238e+01       1.18101e+01       2.17193e-04       1.38074e+02
 14.300      2.21314e+02       2.68465e+01       1.17732e+01       2.13614e-04       1.35681e+02
 14.400      2.21126e+02       2.68543e+01       1.17449e+01       2.10136e-04       1.33359e+02
 14.500      2.20942e+02       2.68478e+01       1.17238e+01       2.06754e-04       1.31104e+02
 14.600      2.20762e+02       2.68272e+01       1.17085e+01       2.03464e-04       1.28912e+02
 14.700      2.20585e+02       2.67929e+01       1.16976e+01       2.00261e-04       1.26781e+02
 14.800      2.20411e+02       2.67455e+01       1.16897e+01       1.97141e-04       1.24707e+02
 14.900      2.20240e+02       2.66853e+01       1.16836e+01       1.94099e-04       1.22688e+02
 15.000      2.20072e+02       2.66126e+01       1.16777e+01       1.91132e-04       1.20720e+02
 15.100      2.19906e+02       2.65280e+01       1.16708e+01       1.88235e-04       1.18801e+02
 15.200      2.19743e+02       2.64317e+01       1.16614e+01       1.85406e-04       1.16928e+02
 15.300      2.19582e+02       2.63242e+01       1.16481e+01       1.82641e-04       1.15100e+02
 15.400      2.19423e+02       2.62059e+01       1.16296e+01       1.79936e-04       1.13313e+02
 15.500      2.19266e+02       2.60772e+01       1.16046e+01       1.77288e-04       1.11566e+02
 15.600      2.19111e+02       2.59385e+01       1.15715e+01       1.74694e-04       1.09856e+02
 15.700      2.18957e+02       2.57902e+01       1.15291e+01       1.72152e-04       1.08182e+02
 15.800      2.18805e+02       2.56328e+01       1.14760e+01       1.69659e-04       1.06541e+02
 15.900      2.18654e+02       2.54665e+01       1.14107e+01       1.67211e-04       1.04931e+02
 16.000      2.18504e+02       2.52918e+01       1.13320e+01       1.64807e-04       1.03352e+02
 16.100      2.18355e+02       2.51092e+01       1.12384e+01       1.62444e-04       1.01800e+02
 16.200      2.18206e+02       2.49189e+01       1.11285e+01       1.60120e-04       1.00276e+02
 16.300      2.18058e+02       2.47214e+01       1.10012e+01       1.57833e-04       9.87760e+01
 16.400      2.17911e+02       2.45167e+01       1.08567e+01       1.55580e-04       9.73006e+01
 16.500      2.17765e+02       2.43047e+01       1.06959e+01       1.53361e-04       9.58485e+01
 16.600      2.17621e+02       2.40852e+01       1.05196e+01       1.51174e-04       9.44189e+01
 16.700      2.17478e+02       2.38580e+01       1.03286e+01       1.49017e-04       9.30110e+01
 16.800      2.17338e+02       2.36231e+01       1.01238e+01       1.46890e-04       9.16241e+01
 16.900      2.17200e+02       2.33804e+01       9.90603e+00       1.44791e-04       9.02575e+01
 17.000      2.17065e+02       2.31296e+01       9.67616e+00       1.42719e-04       8.89105e+01
 17.100      2.16933e+02       2.28707e+01       9.43501e+00       1.40672e-04       8.75824e+01
 17.200      2.16805e+02       2.26035e+01       9.18343e+00       1.38651e-04       8.62726e+01
 17.300      2.16681e+02       2.23279e+01       8.92227e+00       1.36652e-04       8.49805e+01
 17.400      2.16561e+02       2.20438e+01       8.65237e+00       1.34677e-04       8.37056e+01
 17.500      2.16445e+02       2.17510e+01       8.37457e+00       1.32723e-04       8.24472e+01
 17.600      2.16335e+02       2.14494e+01       8.08973e+00       1.30790e-04       8.12048e+01
 17.700      2.16230e+02       2.11389e+01       7.79868e+00       1.28876e-04       7.99780e+01
 17.800      2.16130e+02       2.08193e+01       7.50228e+00       1.26982e-04       7.87662e+01
 17.900      2.16037e+02       2.04905e+01       7.20136e+00       1.25106e-04       7.75691e+01
 18.000      2.15950e+02       2.01525e+01       6.89677e+00       1.23248e-04       7.63860e+01
 18.100      2.15869e+02       1.98049e+01       6.58936e+00       1.21407e-04       7.52167e+01
 18.200      2.15796e+02       1.94478e+01       6.27998e+00       1.19581e-04       7.40607e+01
 18.300      2.15730e+02       1.90809e+01       5.96946e+00       1.17772e-04       7.29177e+01
 18.400      2.15672e+02       1.87042e+01       5.65866e+00       1.15977e-04       7.17872e+01
 18.500      2.15621e+02       1.83176e+01       5.34841e+00       1.14197e-04       7.06688e+01
 18.600      2.15580e+02       1.79208e+01       5.03956e+00       1.12431e-04       6.95624e+01
 18.700      2.15546e+02       1.75143e+01       4.73267e+00       1.10679e-04       6.84679e+01
 18.800      2.15521e+02       1.70994e+01       4.42800e+00       1.08942e-04       6.73858e+01
 18.900      2.15503e+02       1.66770e+01       4.12572e+00       1.07222e-04       6.63163e+01
 19.000      2.15493e+02       1.62484e+01       3.82605e+00       1.05520e-04       6.52600e+01
 19.100      2.15488e+02       1.58147e+01       3.52919e+00       1.03835e-04       6.42171e+01
 19.200      2.15490e+02       1.53773e+01       3.23535e+00       1.02171e-04       6.31880e+01
 19.300      2.15497e+02       1.49371e+01       2.94475e+00       1.00526e-04       6.21731e+01
 19.400      2.15509e+02       1.44954e+01       2.65756e+00       9.89026e-05       6.11724e+01
 19.500      2.15526e+02       1.40533e+01       2.37401e+00       9.73008e-05       6.01864e+01
 19.600      2.15547e+02       1.36121e+01       2.09429e+00       9.57214e-05       5.92151e+01
 19.700      2.15571e+02       1.31729e+01       1.81862e+00       9.41650e-05       5.82588e+01
 19.800      2.15598e+02       1.27369e+01       1.54721e+00       9.26322e-05       5.73178e+01
 19.900      2.15628e+02       1.23052e+01       1.28024e+00       9.11234e-05       5.63920e+01
 20.000      2.15660e+02       1.18790e+01       1.01792e+00       8.96392e-05       5.54817e+01
 20.100      2.15694e+02       1.14595e+01       7.60475e-01       8.81798e-05       5.45869e+01
 20.200      2.15728e+02       1.10479e+01       5.08094e-01       8.67457e-05       5.37078e+01
 20.300      2.15764e+02       1.06453e+01       2.60991e-01       8.53372e-05       5.28444e+01
