# Data Source: NASA MERRA (version 1)
# Model Time = 2010-07-20 18:00:00
# Location = [  39.7393, -104.9900 ]
# Fields = [ Z(km), T(K), U(m/s), V(m/s), R(g/cm3), P(mbar) ]
# Ground Height = 1.589
  0.000      3.07089e+02       9.51530e-01       7.19033e-01       1.15297e-03       1.01617e+03
  0.100      3.06464e+02       9.16473e-01       7.04002e-01       1.14184e-03       1.00430e+03
  0.200      3.05840e+02       8.76967e-01       6.89202e-01       1.13080e-03       9.92574e+02
  0.300      3.05214e+02       8.45182e-01       6.74002e-01       1.11989e-03       9.80984e+02
  0.400      3.04580e+02       8.32633e-01       6.57881e-01       1.10913e-03       9.69536e+02
  0.500      3.03944e+02       8.34264e-01       6.43175e-01       1.09849e-03       9.58229e+02
  0.600      3.03322e+02       8.27657e-01       6.35193e-01       1.08791e-03       9.47062e+02
  0.700      3.02714e+02       8.05866e-01       6.34682e-01       1.07740e-03       9.36034e+02
  0.800      3.02084e+02       7.92407e-01       6.33607e-01       1.06708e-03       9.25139e+02
  0.900      3.01410e+02       8.09755e-01       6.25629e-01       1.05702e-03       9.14374e+02
  1.000      3.00735e+02       8.62204e-01       6.15480e-01       1.04707e-03       9.03740e+02
  1.100      3.00114e+02       9.48171e-01       6.10351e-01       1.03705e-03       8.93236e+02
  1.200      2.99545e+02       1.05158e+00       6.12240e-01       1.02695e-03       8.82865e+02
  1.300      2.98992e+02       1.14645e+00       6.19599e-01       1.01692e-03       8.72623e+02
  1.400      2.98417e+02       1.20664e+00       6.30809e-01       1.00707e-03       8.62509e+02
  1.500      2.97779e+02       1.20596e+00       6.44254e-01       9.97538e-04       8.52523e+02
  1.600      2.97048e+02       1.12211e+00       6.57529e-01       9.88427e-04       8.42661e+02
  1.700      2.96235e+02       9.66810e-01       6.61282e-01       9.79681e-04       8.32918e+02
  1.800      2.95377e+02       7.69532e-01       6.42536e-01       9.71165e-04       8.23287e+02
  1.900      2.94511e+02       5.59899e-01       5.88281e-01       9.62747e-04       8.13759e+02
  2.000      2.93675e+02       3.67535e-01       4.85510e-01       9.54299e-04       8.04329e+02
  2.100      2.92905e+02       2.21073e-01       3.22289e-01       9.45697e-04       7.94989e+02
  2.200      2.92219e+02       1.29964e-01       1.07541e-01       9.36888e-04       7.85738e+02
  2.300      2.91618e+02       8.62693e-02      -1.30913e-01       9.27878e-04       7.76581e+02
  2.400      2.91103e+02       8.14217e-02      -3.64569e-01       9.18674e-04       7.67520e+02
  2.500      2.90675e+02       1.06854e-01      -5.64920e-01       9.09285e-04       7.58560e+02
  2.600      2.90336e+02       1.54000e-01      -7.03462e-01       8.99719e-04       7.49703e+02
  2.700      2.90078e+02       2.17567e-01      -7.59633e-01       8.90008e-04       7.40952e+02
  2.800      2.89867e+02       3.04097e-01      -7.41594e-01       8.80258e-04       7.32302e+02
  2.900      2.89663e+02       4.22810e-01      -6.63996e-01       8.70592e-04       7.23750e+02
  3.000      2.89424e+02       5.82922e-01      -5.41488e-01       8.61125e-04       7.15292e+02
  3.100      2.89111e+02       7.93652e-01      -3.88720e-01       8.51970e-04       7.06922e+02
  3.200      2.88683e+02       1.06420e+00      -2.20330e-01       8.43235e-04       6.98638e+02
  3.300      2.88118e+02       1.39839e+00      -4.70766e-02       8.34970e-04       6.90436e+02
  3.400      2.87439e+02       1.78676e+00       1.29840e-01       8.27097e-04       6.82313e+02
  3.500      2.86676e+02       2.21786e+00       3.10662e-01       8.19521e-04       6.74269e+02
  3.600      2.85859e+02       2.68023e+00       4.95634e-01       8.12151e-04       6.66301e+02
  3.700      2.85019e+02       3.16243e+00       6.84999e-01       8.04896e-04       6.58409e+02
  3.800      2.84186e+02       3.65299e+00       8.78999e-01       7.97669e-04       6.50589e+02
  3.900      2.83384e+02       4.14121e+00       1.07727e+00       7.90400e-04       6.42842e+02
  4.000      2.82611e+02       4.62017e+00       1.27637e+00       7.83099e-04       6.35167e+02
  4.100      2.81854e+02       5.08414e+00       1.47191e+00       7.75801e-04       6.27562e+02
  4.200      2.81102e+02       5.52738e+00       1.65948e+00       7.68537e-04       6.20027e+02
  4.300      2.80343e+02       5.94416e+00       1.83469e+00       7.61340e-04       6.12562e+02
  4.400      2.79565e+02       6.32873e+00       1.99313e+00       7.54241e-04       6.05166e+02
  4.500      2.78756e+02       6.67546e+00       2.13043e+00       7.47270e-04       5.97839e+02
  4.600      2.77913e+02       6.98526e+00       2.24283e+00       7.40437e-04       5.90580e+02
  4.700      2.77045e+02       7.27035e+00       2.32769e+00       7.33712e-04       5.83388e+02
  4.800      2.76162e+02       7.54405e+00       2.38249e+00       7.27068e-04       5.76263e+02
  4.900      2.75277e+02       7.81968e+00       2.40471e+00       7.20473e-04       5.69205e+02
  5.000      2.74399e+02       8.11056e+00       2.39181e+00       7.13899e-04       5.62212e+02
  5.100      2.73539e+02       8.43001e+00       2.34127e+00       7.07318e-04       5.55285e+02
  5.200      2.72708e+02       8.79129e+00       2.25059e+00       7.00704e-04       5.48422e+02
  5.300      2.71912e+02       9.20060e+00       2.12100e+00       6.94043e-04       5.41623e+02
  5.400      2.71146e+02       9.64964e+00       1.96145e+00       6.87351e-04       5.34888e+02
  5.500      2.70401e+02       1.01283e+01       1.78177e+00       6.80649e-04       5.28218e+02
  5.600      2.69671e+02       1.06266e+01       1.59185e+00       6.73954e-04       5.21611e+02
  5.700      2.68950e+02       1.11343e+01       1.40154e+00       6.67286e-04       5.15069e+02
  5.800      2.68230e+02       1.16414e+01       1.22071e+00       6.60662e-04       5.08590e+02
  5.900      2.67504e+02       1.21378e+01       1.05921e+00       6.54100e-04       5.02176e+02
  6.000      2.66766e+02       1.26141e+01       9.26523e-01       6.47614e-04       4.95825e+02
  6.100      2.66018e+02       1.30670e+01       8.27577e-01       6.41198e-04       4.89537e+02
  6.200      2.65269e+02       1.34981e+01       7.64279e-01       6.34834e-04       4.83313e+02
  6.300      2.64527e+02       1.39084e+01       7.38490e-01       6.28501e-04       4.77152e+02
  6.400      2.63799e+02       1.42995e+01       7.52068e-01       6.22181e-04       4.71054e+02
  6.500      2.63093e+02       1.46727e+01       8.06872e-01       6.15855e-04       4.65019e+02
  6.600      2.62419e+02       1.50292e+01       9.04762e-01       6.09507e-04       4.59046e+02
  6.700      2.61784e+02       1.53705e+01       1.04760e+00       6.03119e-04       4.53135e+02
  6.800      2.61196e+02       1.56979e+01       1.23705e+00       5.96675e-04       4.47286e+02
  6.900      2.60652e+02       1.60124e+01       1.46965e+00       5.90183e-04       4.41499e+02
  7.000      2.60142e+02       1.63151e+01       1.73632e+00       5.83670e-04       4.35773e+02
  7.100      2.59653e+02       1.66067e+01       2.02769e+00       5.77168e-04       4.30108e+02
  7.200      2.59172e+02       1.68882e+01       2.33439e+00       5.70704e-04       4.24503e+02
  7.300      2.58687e+02       1.71604e+01       2.64705e+00       5.64305e-04       4.18958e+02
  7.400      2.58185e+02       1.74241e+01       2.95630e+00       5.57998e-04       4.13472e+02
  7.500      2.57654e+02       1.76803e+01       3.25277e+00       5.51809e-04       4.08046e+02
  7.600      2.57082e+02       1.79298e+01       3.52709e+00       5.45763e-04       4.02678e+02
  7.700      2.56456e+02       1.81734e+01       3.77006e+00       5.39880e-04       3.97368e+02
  7.800      2.55775e+02       1.84109e+01       3.97627e+00       5.34162e-04       3.92115e+02
  7.900      2.55049e+02       1.86407e+01       4.14416e+00       5.28585e-04       3.86919e+02
  8.000      2.54287e+02       1.88613e+01       4.27234e+00       5.23125e-04       3.81779e+02
  8.100      2.53500e+02       1.90711e+01       4.35942e+00       5.17761e-04       3.76695e+02
  8.200      2.52697e+02       1.92687e+01       4.40399e+00       5.12469e-04       3.71664e+02
  8.300      2.51888e+02       1.94524e+01       4.40466e+00       5.07230e-04       3.66686e+02
  8.400      2.51084e+02       1.96208e+01       4.36005e+00       5.02021e-04       3.61762e+02
  8.500      2.50293e+02       1.97723e+01       4.26875e+00       4.96823e-04       3.56889e+02
  8.600      2.49527e+02       1.99054e+01       4.12937e+00       4.91617e-04       3.52068e+02
  8.700      2.48794e+02       2.00186e+01       3.94076e+00       4.86384e-04       3.47297e+02
  8.800      2.48096e+02       2.01140e+01       3.70572e+00       4.81123e-04       3.42576e+02
  8.900      2.47427e+02       2.01960e+01       3.43041e+00       4.75846e-04       3.37905e+02
  9.000      2.46782e+02       2.02692e+01       3.12108e+00       4.70565e-04       3.33285e+02
  9.100      2.46157e+02       2.03383e+01       2.78399e+00       4.65292e-04       3.28715e+02
  9.200      2.45544e+02       2.04079e+01       2.42540e+00       4.60039e-04       3.24194e+02
  9.300      2.44939e+02       2.04826e+01       2.05154e+00       4.54815e-04       3.19724e+02
  9.400      2.44336e+02       2.05670e+01       1.66868e+00       4.49633e-04       3.15303e+02
  9.500      2.43730e+02       2.06659e+01       1.28307e+00       4.44502e-04       3.10932e+02
  9.600      2.43115e+02       2.07838e+01       9.00962e-01       4.39433e-04       3.06610e+02
  9.700      2.42486e+02       2.09252e+01       5.28615e-01       4.34433e-04       3.02338e+02
  9.800      2.41838e+02       2.10949e+01       1.72204e-01       4.29514e-04       2.98114e+02
  9.900      2.41168e+02       2.12933e+01      -1.64215e-01       4.24675e-04       2.93940e+02
 10.000      2.40479e+02       2.15169e+01      -4.79041e-01       4.19912e-04       2.89813e+02
 10.100      2.39774e+02       2.17616e+01      -7.70797e-01       4.15219e-04       2.85733e+02
 10.200      2.39056e+02       2.20236e+01      -1.03801e+00       4.10589e-04       2.81701e+02
 10.300      2.38327e+02       2.22990e+01      -1.27920e+00       4.06016e-04       2.77714e+02
 10.400      2.37590e+02       2.25837e+01      -1.49291e+00       4.01496e-04       2.73773e+02
 10.500      2.36847e+02       2.28739e+01      -1.67765e+00       3.97022e-04       2.69876e+02
 10.600      2.36103e+02       2.31656e+01      -1.83195e+00       3.92589e-04       2.66024e+02
 10.700      2.35358e+02       2.34550e+01      -1.95434e+00       3.88193e-04       2.62216e+02
 10.800      2.34616e+02       2.37379e+01      -2.04335e+00       3.83828e-04       2.58450e+02
 10.900      2.33880e+02       2.40107e+01      -2.09750e+00       3.79490e-04       2.54727e+02
 11.000      2.33152e+02       2.42692e+01      -2.11532e+00       3.75174e-04       2.51047e+02
 11.100      2.32435e+02       2.45099e+01      -2.09567e+00       3.70876e-04       2.47407e+02
 11.200      2.31728e+02       2.47314e+01      -2.04076e+00       3.66597e-04       2.43809e+02
 11.300      2.31030e+02       2.49338e+01      -1.95469e+00       3.62339e-04       2.40252e+02
 11.400      2.30339e+02       2.51173e+01      -1.84158e+00       3.58107e-04       2.36735e+02
 11.500      2.29653e+02       2.52819e+01      -1.70556e+00       3.53902e-04       2.33259e+02
 11.600      2.28971e+02       2.54278e+01      -1.55075e+00       3.49728e-04       2.29823e+02
 11.700      2.28289e+02       2.55551e+01      -1.38126e+00       3.45589e-04       2.26426e+02
 11.800      2.27608e+02       2.56639e+01      -1.20124e+00       3.41485e-04       2.23069e+02
 11.900      2.26924e+02       2.57543e+01      -1.01479e+00       3.37420e-04       2.19752e+02
 12.000      2.26236e+02       2.58264e+01      -8.26045e-01       3.33397e-04       2.16474e+02
 12.100      2.25542e+02       2.58804e+01      -6.39124e-01       3.29417e-04       2.13234e+02
 12.200      2.24841e+02       2.59162e+01      -4.58154e-01       3.25484e-04       2.10033e+02
 12.300      2.24130e+02       2.59342e+01      -2.87254e-01       3.21598e-04       2.06870e+02
 12.400      2.23408e+02       2.59343e+01      -1.30551e-01       3.17764e-04       2.03744e+02
 12.500      2.22674e+02       2.59167e+01       7.83539e-03       3.13981e-04       2.00657e+02
 12.600      2.21924e+02       2.58814e+01       1.24236e-01       3.10253e-04       1.97607e+02
 12.700      2.21161e+02       2.58280e+01       2.18514e-01       3.06576e-04       1.94594e+02
 12.800      2.20387e+02       2.57559e+01       2.92187e-01       3.02947e-04       1.91617e+02
 12.900      2.19604e+02       2.56645e+01       3.46774e-01       2.99361e-04       1.88677e+02
 13.000      2.18815e+02       2.55531e+01       3.83799e-01       2.95816e-04       1.85772e+02
 13.100      2.18021e+02       2.54212e+01       4.04784e-01       2.92308e-04       1.82903e+02
 13.200      2.17225e+02       2.52680e+01       4.11251e-01       2.88832e-04       1.80068e+02
 13.300      2.16430e+02       2.50931e+01       4.04723e-01       2.85387e-04       1.77269e+02
 13.400      2.15637e+02       2.48956e+01       3.86723e-01       2.81968e-04       1.74504e+02
 13.500      2.14849e+02       2.46751e+01       3.58772e-01       2.78572e-04       1.71772e+02
 13.600      2.14068e+02       2.44309e+01       3.22393e-01       2.75197e-04       1.69074e+02
 13.700      2.13296e+02       2.41624e+01       2.79109e-01       2.71840e-04       1.66410e+02
 13.800      2.12537e+02       2.38690e+01       2.30441e-01       2.68497e-04       1.63778e+02
 13.900      2.11791e+02       2.35499e+01       1.77914e-01       2.65166e-04       1.61178e+02
 14.000      2.11062e+02       2.32047e+01       1.23047e-01       2.61844e-04       1.58611e+02
 14.100      2.10351e+02       2.28327e+01       6.73649e-02       2.58529e-04       1.56076e+02
 14.200      2.09661e+02       2.24332e+01       1.23897e-02       2.55219e-04       1.53572e+02
 14.300      2.08995e+02       2.20056e+01      -4.03569e-02       2.51910e-04       1.51100e+02
 14.400      2.08354e+02       2.15494e+01      -8.93995e-02       2.48603e-04       1.48658e+02
 14.500      2.07739e+02       2.10654e+01      -1.34139e-01       2.45294e-04       1.46247e+02
 14.600      2.07153e+02       2.05556e+01      -1.74741e-01       2.41986e-04       1.43868e+02
 14.700      2.06595e+02       2.00220e+01      -2.11398e-01       2.38680e-04       1.41520e+02
 14.800      2.06067e+02       1.94667e+01      -2.44300e-01       2.35375e-04       1.39204e+02
 14.900      2.05568e+02       1.88916e+01      -2.73640e-01       2.32074e-04       1.36919e+02
 15.000      2.05101e+02       1.82988e+01      -2.99610e-01       2.28776e-04       1.34667e+02
 15.100      2.04665e+02       1.76903e+01      -3.22400e-01       2.25483e-04       1.32446e+02
 15.200      2.04263e+02       1.70683e+01      -3.42204e-01       2.22195e-04       1.30258e+02
 15.300      2.03893e+02       1.64346e+01      -3.59212e-01       2.18914e-04       1.28102e+02
 15.400      2.03558e+02       1.57913e+01      -3.73616e-01       2.15640e-04       1.25979e+02
 15.500      2.03257e+02       1.51405e+01      -3.85608e-01       2.12373e-04       1.23888e+02
 15.600      2.02993e+02       1.44842e+01      -3.95379e-01       2.09116e-04       1.21829e+02
 15.700      2.02765e+02       1.38244e+01      -4.03122e-01       2.05869e-04       1.19802e+02
 15.800      2.02575e+02       1.31631e+01      -4.09029e-01       2.02632e-04       1.17808e+02
 15.900      2.02423e+02       1.25025e+01      -4.13289e-01       1.99406e-04       1.15846e+02
 16.000      2.02310e+02       1.18444e+01      -4.16097e-01       1.96194e-04       1.13916e+02
 16.100      2.02237e+02       1.11910e+01      -4.17642e-01       1.92994e-04       1.12018e+02
 16.200      2.02204e+02       1.05443e+01      -4.18117e-01       1.89809e-04       1.10151e+02
 16.300      2.02213e+02       9.90626e+00      -4.17714e-01       1.86639e-04       1.08316e+02
 16.400      2.02264e+02       9.27898e+00      -4.16624e-01       1.83485e-04       1.06513e+02
 16.500      2.02359e+02       8.66446e+00      -4.15039e-01       1.80349e-04       1.04741e+02
 16.600      2.02497e+02       8.06474e+00      -4.13151e-01       1.77230e-04       1.03000e+02
 16.700      2.02680e+02       7.48185e+00      -4.11151e-01       1.74130e-04       1.01290e+02
 16.800      2.02909e+02       6.91783e+00      -4.09231e-01       1.71050e-04       9.96108e+01
 16.900      2.03182e+02       6.37407e+00      -4.07530e-01       1.67992e-04       9.79617e+01
 17.000      2.03497e+02       5.85078e+00      -4.06080e-01       1.64959e-04       9.63423e+01
 17.100      2.03851e+02       5.34799e+00      -4.04900e-01       1.61955e-04       9.47522e+01
 17.200      2.04238e+02       4.86574e+00      -4.04011e-01       1.58984e-04       9.31906e+01
 17.300      2.04657e+02       4.40408e+00      -4.03432e-01       1.56048e-04       9.16572e+01
 17.400      2.05102e+02       3.96301e+00      -4.03183e-01       1.53151e-04       9.01513e+01
 17.500      2.05571e+02       3.54259e+00      -4.03283e-01       1.50295e-04       8.86723e+01
 17.600      2.06060e+02       3.14286e+00      -4.03751e-01       1.47482e-04       8.72199e+01
 17.700      2.06565e+02       2.76384e+00      -4.04608e-01       1.44715e-04       8.57935e+01
 17.800      2.07083e+02       2.40559e+00      -4.05873e-01       1.41996e-04       8.43926e+01
 17.900      2.07610e+02       2.06812e+00      -4.07566e-01       1.39327e-04       8.30168e+01
 18.000      2.08142e+02       1.75149e+00      -4.09705e-01       1.36709e-04       8.16655e+01
 18.100      2.08676e+02       1.45572e+00      -4.12311e-01       1.34143e-04       8.03382e+01
 18.200      2.09209e+02       1.18085e+00      -4.15404e-01       1.31630e-04       7.90346e+01
 18.300      2.09735e+02       9.26934e-01      -4.19002e-01       1.29173e-04       7.77542e+01
 18.400      2.10253e+02       6.93985e-01      -4.23126e-01       1.26771e-04       7.64966e+01
 18.500      2.10757e+02       4.82049e-01      -4.27795e-01       1.24425e-04       7.52612e+01
 18.600      2.11246e+02       2.91163e-01      -4.33029e-01       1.22136e-04       7.40477e+01
 18.700      2.11714e+02       1.21363e-01      -4.38847e-01       1.19904e-04       7.28558e+01
 18.800      2.12159e+02      -2.73124e-02      -4.45269e-01       1.17729e-04       7.16849e+01
 18.900      2.12576e+02      -1.54831e-01      -4.52314e-01       1.15613e-04       7.05347e+01
 19.000      2.12963e+02      -2.61205e-01      -4.59989e-01       1.13554e-04       6.94048e+01
 19.100      2.13318e+02      -3.47481e-01      -4.68035e-01       1.11552e-04       6.82948e+01
 19.200      2.13643e+02      -4.15663e-01      -4.75944e-01       1.09604e-04       6.72044e+01
 19.300      2.13940e+02      -4.67791e-01      -4.83203e-01       1.07707e-04       6.61331e+01
 19.400      2.14211e+02      -5.05907e-01      -4.89295e-01       1.05859e-04       6.50808e+01
 19.500      2.14458e+02      -5.32049e-01      -4.93705e-01       1.04058e-04       6.40469e+01
 19.600      2.14682e+02      -5.48258e-01      -4.95919e-01       1.02301e-04       6.30312e+01
 19.700      2.14885e+02      -5.56574e-01      -4.95419e-01       1.00586e-04       6.20334e+01
 19.800      2.15069e+02      -5.59037e-01      -4.91692e-01       9.89118e-05       6.10531e+01
 19.900      2.15236e+02      -5.57688e-01      -4.84222e-01       9.72760e-05       6.00900e+01
 20.000      2.15388e+02      -5.54566e-01      -4.72493e-01       9.56768e-05       5.91438e+01
 20.100      2.15526e+02      -5.51712e-01      -4.55990e-01       9.41126e-05       5.82142e+01
 20.200      2.15652e+02      -5.51165e-01      -4.34198e-01       9.25817e-05       5.73008e+01
 20.300      2.15769e+02      -5.54967e-01      -4.06601e-01       9.10827e-05       5.64035e+01
