# Data Source: NASA GEOS5 Near-Real-Time
# Model Time = 2011-06-08 18:00:00
# Location = [  39.1026,  -84.5123 ]
# Fields = [ Z(km), T(K), U(m/s), V(m/s), R(g/cm3), P(mbar) ]
# Ground Height = 0.165
  0.000      3.07040e+02       2.03674e+00       1.46541e+00       1.15081e-03       1.01410e+03
  0.100      3.06319e+02       2.15822e+00       1.50406e+00       1.14057e-03       1.00272e+03
  0.200      3.05624e+02       2.25985e+00       1.53692e+00       1.13033e-03       9.91459e+02
  0.300      3.04848e+02       2.42425e+00       1.58810e+00       1.12051e-03       9.80350e+02
  0.400      3.03892e+02       2.72868e+00       1.68077e+00       1.11150e-03       9.69415e+02
  0.500      3.02779e+02       3.13428e+00       1.81822e+00       1.10318e-03       9.58637e+02
  0.600      3.01651e+02       3.49014e+00       1.98449e+00       1.09497e-03       9.47956e+02
  0.700      3.00606e+02       3.70975e+00       2.16549e+00       1.08647e-03       9.37338e+02
  0.800      2.99638e+02       3.86401e+00       2.35320e+00       1.07772e-03       9.26794e+02
  0.900      2.98723e+02       4.03137e+00       2.53931e+00       1.06883e-03       9.16340e+02
  1.000      2.97829e+02       4.19334e+00       2.70772e+00       1.05991e-03       9.05979e+02
  1.100      2.96924e+02       4.29249e+00       2.83954e+00       1.05109e-03       8.95710e+02
  1.200      2.96004e+02       4.30701e+00       2.93022e+00       1.04237e-03       8.85529e+02
  1.300      2.95097e+02       4.25934e+00       2.99297e+00       1.03365e-03       8.75430e+02
  1.400      2.94227e+02       4.17211e+00       3.04084e+00       1.02484e-03       8.65409e+02
  1.500      2.93376e+02       4.05637e+00       3.08126e+00       1.01601e-03       8.55468e+02
  1.600      2.92517e+02       3.92017e+00       3.11982e+00       1.00725e-03       8.45612e+02
  1.700      2.91654e+02       3.78012e+00       3.15433e+00       9.98558e-04       8.35841e+02
  1.800      2.90831e+02       3.66262e+00       3.17368e+00       9.89779e-04       8.26154e+02
  1.900      2.90084e+02       3.59128e+00       3.17015e+00       9.80794e-04       8.16550e+02
  2.000      2.89403e+02       3.57049e+00       3.15822e+00       9.71638e-04       8.07030e+02
  2.100      2.88767e+02       3.59780e+00       3.16026e+00       9.62401e-04       7.97600e+02
  2.200      2.88158e+02       3.67397e+00       3.19316e+00       9.53139e-04       7.88259e+02
  2.300      2.87581e+02       3.80581e+00       3.26334e+00       9.43842e-04       7.79006e+02
  2.400      2.87039e+02       4.00067e+00       3.37552e+00       9.34496e-04       7.69840e+02
  2.500      2.86525e+02       4.26287e+00       3.52559e+00       9.25131e-04       7.60760e+02
  2.600      2.86018e+02       4.59417e+00       3.70195e+00       9.15816e-04       7.51766e+02
  2.700      2.85498e+02       4.99110e+00       3.89358e+00       9.06615e-04       7.42861e+02
  2.800      2.84948e+02       5.41243e+00       4.09528e+00       8.97579e-04       7.34041e+02
  2.900      2.84353e+02       5.80010e+00       4.30441e+00       8.88754e-04       7.25306e+02
  3.000      2.83699e+02       6.10501e+00       4.51387e+00       8.80174e-04       7.16652e+02
  3.100      2.82991e+02       6.31822e+00       4.69638e+00       8.71824e-04       7.08083e+02
  3.200      2.82238e+02       6.44196e+00       4.81910e+00       8.63678e-04       6.99599e+02
  3.300      2.81448e+02       6.47971e+00       4.85851e+00       8.55707e-04       6.91204e+02
  3.400      2.80633e+02       6.43936e+00       4.82346e+00       8.47871e-04       6.82889e+02
  3.500      2.79802e+02       6.32977e+00       4.72982e+00       8.40128e-04       6.74650e+02
  3.600      2.78966e+02       6.15964e+00       4.59120e+00       8.32443e-04       6.66481e+02
  3.700      2.78131e+02       5.93718e+00       4.41330e+00       8.24799e-04       6.58384e+02
  3.800      2.77303e+02       5.67049e+00       4.20007e+00       8.17183e-04       6.50364e+02
  3.900      2.76491e+02       5.37000e+00       3.95961e+00       8.09577e-04       6.42423e+02
  4.000      2.75710e+02       5.05684e+00       3.71916e+00       8.01932e-04       6.34559e+02
  4.100      2.74980e+02       4.75521e+00       3.51139e+00       7.94195e-04       6.26772e+02
  4.200      2.74316e+02       4.48933e+00       3.36727e+00       7.86321e-04       6.19060e+02
  4.300      2.73713e+02       4.28354e+00       3.30389e+00       7.78332e-04       6.11424e+02
  4.400      2.73153e+02       4.16225e+00       3.33157e+00       7.70282e-04       6.03863e+02
  4.500      2.72620e+02       4.14882e+00       3.45977e+00       7.62222e-04       5.96378e+02
  4.600      2.72099e+02       4.24106e+00       3.67792e+00       7.54194e-04       5.88969e+02
  4.700      2.71579e+02       4.41020e+00       3.95462e+00       7.46232e-04       5.81638e+02
  4.800      2.71050e+02       4.62625e+00       4.25749e+00       7.38365e-04       5.74383e+02
  4.900      2.70503e+02       4.86504e+00       4.56284e+00       7.30612e-04       5.67207e+02
  5.000      2.69949e+02       5.12053e+00       4.87384e+00       7.22948e-04       5.60106e+02
  5.100      2.69397e+02       5.39019e+00       5.19888e+00       7.15341e-04       5.53080e+02
  5.200      2.68857e+02       5.67138e+00       5.54479e+00       7.07767e-04       5.46127e+02
  5.300      2.68319e+02       5.95987e+00       5.89092e+00       7.00250e-04       5.39245e+02
  5.400      2.67757e+02       6.25008e+00       6.19305e+00       6.92858e-04       5.32435e+02
  5.500      2.67142e+02       6.53634e+00       6.40617e+00       6.85660e-04       5.25694e+02
  5.600      2.66455e+02       6.81251e+00       6.49415e+00       6.78704e-04       5.19022e+02
  5.700      2.65706e+02       7.06960e+00       6.46935e+00       6.71957e-04       5.12418e+02
  5.800      2.64917e+02       7.29768e+00       6.36062e+00       6.65358e-04       5.05880e+02
  5.900      2.64111e+02       7.48681e+00       6.19684e+00       6.58848e-04       4.99407e+02
  6.000      2.63307e+02       7.63193e+00       6.00219e+00       6.52381e-04       4.92998e+02
  6.100      2.62506e+02       7.74281e+00       5.78663e+00       6.45948e-04       4.86653e+02
  6.200      2.61710e+02       7.83203e+00       5.55743e+00       6.39548e-04       4.80370e+02
  6.300      2.60918e+02       7.91216e+00       5.32183e+00       6.33181e-04       4.74147e+02
  6.400      2.60131e+02       7.99335e+00       5.08858e+00       6.26843e-04       4.67985e+02
  6.500      2.59350e+02       8.07922e+00       4.87028e+00       6.20534e-04       4.61885e+02
  6.600      2.58578e+02       8.17237e+00       4.68017e+00       6.14249e-04       4.55846e+02
  6.700      2.57818e+02       8.27536e+00       4.53150e+00       6.07985e-04       4.49871e+02
  6.800      2.57070e+02       8.39149e+00       4.43382e+00       6.01740e-04       4.43958e+02
  6.900      2.56339e+02       8.52670e+00       4.38287e+00       5.95505e-04       4.38108e+02
  7.000      2.55628e+02       8.68757e+00       4.37115e+00       5.89271e-04       4.32321e+02
  7.100      2.54943e+02       8.88067e+00       4.39116e+00       5.83029e-04       4.26594e+02
  7.200      2.54284e+02       9.11097e+00       4.43563e+00       5.76774e-04       4.20928e+02
  7.300      2.53646e+02       9.36813e+00       4.49969e+00       5.70524e-04       4.15322e+02
  7.400      2.53015e+02       9.63322e+00       4.57982e+00       5.64309e-04       4.09775e+02
  7.500      2.52378e+02       9.88721e+00       4.67248e+00       5.58159e-04       4.04289e+02
  7.600      2.51721e+02       1.01111e+01       4.77416e+00       5.52103e-04       3.98861e+02
  7.700      2.51037e+02       1.02924e+01       4.88174e+00       5.46157e-04       3.93493e+02
  7.800      2.50328e+02       1.04324e+01       4.99303e+00       5.40313e-04       3.88182e+02
  7.900      2.49598e+02       1.05344e+01       5.10592e+00       5.34559e-04       3.82929e+02
  8.000      2.48851e+02       1.06014e+01       5.21833e+00       5.28886e-04       3.77732e+02
  8.100      2.48093e+02       1.06367e+01       5.32844e+00       5.23282e-04       3.72590e+02
  8.200      2.47324e+02       1.06395e+01       5.44133e+00       5.17742e-04       3.67504e+02
  8.300      2.46545e+02       1.06054e+01       5.56965e+00       5.12266e-04       3.62471e+02
  8.400      2.45756e+02       1.05298e+01       5.72637e+00       5.06851e-04       3.57492e+02
  8.500      2.44957e+02       1.04079e+01       5.92448e+00       5.01497e-04       3.52566e+02
  8.600      2.44149e+02       1.02357e+01       6.17600e+00       4.96203e-04       3.47693e+02
  8.700      2.43330e+02       1.00258e+01       6.46735e+00       4.90968e-04       3.42871e+02
  8.800      2.42504e+02       9.80881e+00       6.75764e+00       4.85786e-04       3.38100e+02
  8.900      2.41670e+02       9.61614e+00       7.00463e+00       4.80656e-04       3.33380e+02
  9.000      2.40831e+02       9.47918e+00       7.16611e+00       4.75574e-04       3.28709e+02
  9.100      2.39986e+02       9.42927e+00       7.19994e+00       4.70536e-04       3.24087e+02
  9.200      2.39140e+02       9.48536e+00       7.08707e+00       4.65538e-04       3.19514e+02
  9.300      2.38297e+02       9.63850e+00       6.86009e+00       4.60568e-04       3.14989e+02
  9.400      2.37465e+02       9.87598e+00       6.55863e+00       4.55615e-04       3.10513e+02
  9.500      2.36649e+02       1.01851e+01       6.22230e+00       4.50668e-04       3.06086e+02
  9.600      2.35856e+02       1.05531e+01       5.89074e+00       4.45716e-04       3.01708e+02
  9.700      2.35091e+02       1.09671e+01       5.60193e+00       4.40751e-04       2.97380e+02
  9.800      2.34352e+02       1.14103e+01       5.37004e+00       4.35779e-04       2.93101e+02
  9.900      2.33630e+02       1.18631e+01       5.19121e+00       4.30816e-04       2.88870e+02
 10.000      2.32915e+02       1.23060e+01       5.06113e+00       4.25881e-04       2.84687e+02
 10.100      2.32199e+02       1.27192e+01       4.97550e+00       4.20990e-04       2.80552e+02
 10.200      2.31472e+02       1.30830e+01       4.93001e+00       4.16158e-04       2.76464e+02
 10.300      2.30726e+02       1.33791e+01       4.92044e+00       4.11402e-04       2.72423e+02
 10.400      2.29957e+02       1.36035e+01       4.94371e+00       4.06723e-04       2.68427e+02
 10.500      2.29168e+02       1.37622e+01       4.99750e+00       4.02117e-04       2.64477e+02
 10.600      2.28360e+02       1.38618e+01       5.07952e+00       3.97581e-04       2.60572e+02
 10.700      2.27536e+02       1.39085e+01       5.18748e+00       3.93108e-04       2.56711e+02
 10.800      2.26697e+02       1.39088e+01       5.31909e+00       3.88696e-04       2.52893e+02
 10.900      2.25844e+02       1.38690e+01       5.47202e+00       3.84340e-04       2.49119e+02
 11.000      2.24983e+02       1.37953e+01       5.64057e+00       3.80032e-04       2.45387e+02
 11.100      2.24121e+02       1.36931e+01       5.81217e+00       3.75758e-04       2.41698e+02
 11.200      2.23268e+02       1.35679e+01       5.97338e+00       3.71502e-04       2.38051e+02
 11.300      2.22434e+02       1.34252e+01       6.11082e+00       3.67249e-04       2.34446e+02
 11.400      2.21626e+02       1.32705e+01       6.21105e+00       3.62985e-04       2.30883e+02
 11.500      2.20855e+02       1.31091e+01       6.26068e+00       3.58696e-04       2.27361e+02
 11.600      2.20130e+02       1.29465e+01       6.24642e+00       3.54369e-04       2.23881e+02
 11.700      2.19455e+02       1.27829e+01       6.16358e+00       3.50001e-04       2.20443e+02
 11.800      2.18823e+02       1.26103e+01       6.02118e+00       3.45604e-04       2.17046e+02
 11.900      2.18228e+02       1.24201e+01       5.82947e+00       3.41189e-04       2.13692e+02
 12.000      2.17665e+02       1.22034e+01       5.59868e+00       3.36771e-04       2.10381e+02
 12.100      2.17127e+02       1.19516e+01       5.33907e+00       3.32360e-04       2.07112e+02
 12.200      2.16608e+02       1.16559e+01       5.06086e+00       3.27969e-04       2.03887e+02
 12.300      2.16101e+02       1.13077e+01       4.77431e+00       3.23608e-04       2.00705e+02
 12.400      2.15601e+02       1.09005e+01       4.48826e+00       3.19286e-04       1.97566e+02
 12.500      2.15107e+02       1.04473e+01       4.20036e+00       3.15005e-04       1.94471e+02
 12.600      2.14622e+02       9.96984e+00       3.90293e+00       3.10761e-04       1.91418e+02
 12.700      2.14146e+02       9.49018e+00       3.58827e+00       3.06552e-04       1.88407e+02
 12.800      2.13683e+02       9.03028e+00       3.24865e+00       3.02375e-04       1.85437e+02
 12.900      2.13233e+02       8.61210e+00       2.87636e+00       2.98227e-04       1.82508e+02
 13.000      2.12799e+02       8.25764e+00       2.46367e+00       2.94105e-04       1.79619e+02
 13.100      2.12382e+02       7.98886e+00       2.00289e+00       2.90007e-04       1.76769e+02
 13.200      2.11984e+02       7.82741e+00       1.48643e+00       2.85931e-04       1.73959e+02
 13.300      2.11607e+02       7.77942e+00       9.13745e-01       2.81875e-04       1.71186e+02
 13.400      2.11253e+02       7.82933e+00       2.94064e-01       2.77839e-04       1.68453e+02
 13.500      2.10923e+02       7.95998e+00      -3.62663e-01       2.73824e-04       1.65759e+02
 13.600      2.10619e+02       8.15421e+00      -1.04647e+00       2.69828e-04       1.63105e+02
 13.700      2.10341e+02       8.39484e+00      -1.74739e+00       2.65853e-04       1.60490e+02
 13.800      2.10093e+02       8.66471e+00      -2.45547e+00       2.61897e-04       1.57915e+02
 13.900      2.09874e+02       8.94665e+00      -3.16075e+00       2.57962e-04       1.55381e+02
 14.000      2.09687e+02       9.22350e+00      -3.85328e+00       2.54047e-04       1.52886e+02
 14.100      2.09534e+02       9.47809e+00      -4.52308e+00       2.50152e-04       1.50432e+02
 14.200      2.09415e+02       9.69479e+00      -5.16108e+00       2.46278e-04       1.48018e+02
 14.300      2.09326e+02       9.86860e+00      -5.76422e+00       2.42429e-04       1.45643e+02
 14.400      2.09262e+02       9.99896e+00      -6.33198e+00       2.38612e-04       1.43306e+02
 14.500      2.09218e+02       1.00853e+01      -6.86387e+00       2.34831e-04       1.41005e+02
 14.600      2.09188e+02       1.01272e+01      -7.35937e+00       2.31091e-04       1.38740e+02
 14.700      2.09166e+02       1.01240e+01      -7.81797e+00       2.27397e-04       1.36508e+02
 14.800      2.09148e+02       1.00753e+01      -8.23918e+00       2.23754e-04       1.34309e+02
 14.900      2.09127e+02       9.98047e+00      -8.62247e+00       2.20166e-04       1.32142e+02
 15.000      2.09098e+02       9.83901e+00      -8.96736e+00       2.16636e-04       1.30006e+02
 15.100      2.09057e+02       9.65037e+00      -9.27332e+00       2.13168e-04       1.27899e+02
 15.200      2.08996e+02       9.41405e+00      -9.53985e+00       2.09766e-04       1.25821e+02
 15.300      2.08911e+02       9.12971e+00      -9.76654e+00       2.06432e-04       1.23771e+02
 15.400      2.08803e+02       8.80027e+00      -9.95413e+00       2.03165e-04       1.21749e+02
 15.500      2.08673e+02       8.43107e+00      -1.01043e+01       1.99963e-04       1.19756e+02
 15.600      2.08527e+02       8.02753e+00      -1.02188e+01       1.96823e-04       1.17793e+02
 15.700      2.08367e+02       7.59510e+00      -1.02992e+01       1.93742e-04       1.15861e+02
 15.800      2.08198e+02       7.13919e+00      -1.03474e+01       1.90718e-04       1.13959e+02
 15.900      2.08022e+02       6.66522e+00      -1.03650e+01       1.87748e-04       1.12090e+02
 16.000      2.07844e+02       6.17862e+00      -1.03536e+01       1.84830e-04       1.10253e+02
 16.100      2.07667e+02       5.68481e+00      -1.03151e+01       1.81961e-04       1.08449e+02
 16.200      2.07495e+02       5.18922e+00      -1.02511e+01       1.79139e-04       1.06679e+02
 16.300      2.07331e+02       4.69727e+00      -1.01632e+01       1.76362e-04       1.04942e+02
 16.400      2.07179e+02       4.21439e+00      -1.00533e+01       1.73628e-04       1.03240e+02
 16.500      2.07043e+02       3.74600e+00      -9.92301e+00       1.70935e-04       1.01572e+02
 16.600      2.06926e+02       3.29752e+00      -9.77402e+00       1.68282e-04       9.99389e+01
 16.700      2.06832e+02       2.87317e+00      -9.60788e+00       1.65666e-04       9.83402e+01
 16.800      2.06759e+02       2.47285e+00      -9.42556e+00       1.63086e-04       9.67749e+01
 16.900      2.06708e+02       2.09549e+00      -9.22786e+00       1.60541e-04       9.52412e+01
 17.000      2.06677e+02       1.74002e+00      -9.01562e+00       1.58031e-04       9.37377e+01
 17.100      2.06665e+02       1.40537e+00      -8.78966e+00       1.55553e-04       9.22631e+01
 17.200      2.06673e+02       1.09049e+00      -8.55081e+00       1.53108e-04       9.08160e+01
 17.300      2.06698e+02       7.94295e-01      -8.29989e+00       1.50694e-04       8.93952e+01
 17.400      2.06741e+02       5.15723e-01      -8.03773e+00       1.48310e-04       8.79993e+01
 17.500      2.06801e+02       2.53708e-01      -7.76516e+00       1.45956e-04       8.66273e+01
 17.600      2.06876e+02       7.18176e-03      -7.48298e+00       1.43630e-04       8.52781e+01
 17.700      2.06966e+02      -2.24921e-01      -7.19205e+00       1.41333e-04       8.39505e+01
 17.800      2.07071e+02      -4.43664e-01      -6.89317e+00       1.39062e-04       8.26437e+01
 17.900      2.07188e+02      -6.50124e-01      -6.58717e+00       1.36819e-04       8.13565e+01
 18.000      2.07319e+02      -8.45361e-01      -6.27488e+00       1.34601e-04       8.00881e+01
 18.100      2.07461e+02      -1.03045e+00      -5.95712e+00       1.32408e-04       7.88376e+01
 18.200      2.07614e+02      -1.20644e+00      -5.63472e+00       1.30241e-04       7.76043e+01
 18.300      2.07778e+02      -1.37441e+00      -5.30850e+00       1.28097e-04       7.63872e+01
 18.400      2.07951e+02      -1.53544e+00      -4.97929e+00       1.25977e-04       7.51856e+01
 18.500      2.08133e+02      -1.69058e+00      -4.64791e+00       1.23880e-04       7.39988e+01
 18.600      2.08323e+02      -1.84090e+00      -4.31518e+00       1.21806e-04       7.28262e+01
 18.700      2.08520e+02      -1.98746e+00      -3.98194e+00       1.19754e-04       7.16670e+01
 18.800      2.08723e+02      -2.13134e+00      -3.64901e+00       1.17724e-04       7.05208e+01
 18.900      2.08932e+02      -2.27358e+00      -3.31721e+00       1.15715e-04       6.93869e+01
 19.000      2.09146e+02      -2.41475e+00      -2.98749e+00       1.13728e-04       6.82653e+01
 19.100      2.09364e+02      -2.55500e+00      -2.66089e+00       1.11765e-04       6.71567e+01
 19.200      2.09585e+02      -2.69447e+00      -2.33846e+00       1.09826e-04       6.60616e+01
 19.300      2.09810e+02      -2.83328e+00      -2.02124e+00       1.07913e-04       6.49804e+01
 19.400      2.10037e+02      -2.97157e+00      -1.71026e+00       1.06027e-04       6.39136e+01
 19.500      2.10265e+02      -3.10948e+00      -1.40658e+00       1.04168e-04       6.28615e+01
 19.600      2.10495e+02      -3.24715e+00      -1.11124e+00       1.02338e-04       6.18246e+01
 19.700      2.10724e+02      -3.38470e+00      -8.25277e-01       1.00538e-04       6.08031e+01
 19.800      2.10953e+02      -3.52227e+00      -5.49751e-01       9.87676e-05       5.97975e+01
 19.900      2.11182e+02      -3.66000e+00      -2.85691e-01       9.70281e-05       5.88079e+01
 20.000      2.11408e+02      -3.79801e+00      -3.41467e-02       9.53200e-05       5.78346e+01
 20.100      2.11632e+02      -3.93646e+00       2.03838e-01       9.36438e-05       5.68779e+01
 20.200      2.11854e+02      -4.07546e+00       4.27219e-01       9.19999e-05       5.59378e+01
 20.300      2.12071e+02      -4.21516e+00       6.34950e-01       9.03888e-05       5.50146e+01
