# Data Source: NASA MERRA (version 2)
# Model Time = 2011-05-26 18:00:00
# Location = [  39.1026,  -84.5123 ]
# Fields = [ Z(km), T(K), U(m/s), V(m/s), R(g/cm3), P(mbar) ]
# Ground Height = 0.165
  0.000      2.95947e+02       3.14987e+00       6.55256e+00       1.18461e-03       1.00617e+03
  0.100      2.95386e+02       2.86206e+00       6.11134e+00       1.17311e-03       9.94517e+02
  0.200      2.94768e+02       2.74462e+00       5.92053e+00       1.16197e-03       9.83009e+02
  0.300      2.93971e+02       3.15456e+00       6.50464e+00       1.15168e-03       9.71669e+02
  0.400      2.92980e+02       4.13438e+00       7.90645e+00       1.14228e-03       9.60490e+02
  0.500      2.91958e+02       5.18664e+00       9.34176e+00       1.13307e-03       9.49424e+02
  0.600      2.91038e+02       5.91132e+00       1.01877e+01       1.12350e-03       9.38432e+02
  0.700      2.90168e+02       6.42361e+00       1.06515e+01       1.11377e-03       9.27524e+02
  0.800      2.89273e+02       6.92488e+00       1.10838e+01       1.10419e-03       9.16716e+02
  0.900      2.88361e+02       7.41985e+00       1.15521e+01       1.09475e-03       9.06009e+02
  1.000      2.87482e+02       7.81890e+00       1.19867e+01       1.08523e-03       8.95394e+02
  1.100      2.86663e+02       8.10009e+00       1.23547e+01       1.07554e-03       8.84870e+02
  1.200      2.85904e+02       8.32251e+00       1.26691e+01       1.06568e-03       8.74439e+02
  1.300      2.85204e+02       8.54994e+00       1.29451e+01       1.05567e-03       8.64103e+02
  1.400      2.84559e+02       8.84617e+00       1.31981e+01       1.04553e-03       8.53864e+02
  1.500      2.83967e+02       9.27015e+00       1.34425e+01       1.03526e-03       8.43724e+02
  1.600      2.83420e+02       9.81409e+00       1.36788e+01       1.02492e-03       8.33685e+02
  1.700      2.82900e+02       1.04215e+01       1.38978e+01       1.01456e-03       8.23745e+02
  1.800      2.82392e+02       1.10347e+01       1.40899e+01       1.00424e-03       8.13904e+02
  1.900      2.81881e+02       1.15961e+01       1.42455e+01       9.94020e-04       8.04161e+02
  2.000      2.81352e+02       1.20503e+01       1.43562e+01       9.83946e-04       7.94517e+02
  2.100      2.80799e+02       1.23796e+01       1.44308e+01       9.74036e-04       7.84969e+02
  2.200      2.80225e+02       1.25974e+01       1.44928e+01       9.64278e-04       7.75517e+02
  2.300      2.79634e+02       1.27184e+01       1.45661e+01       9.54656e-04       7.66159e+02
  2.400      2.79028e+02       1.27571e+01       1.46745e+01       9.45158e-04       7.56893e+02
  2.500      2.78410e+02       1.27280e+01       1.48420e+01       9.35772e-04       7.47717e+02
  2.600      2.77784e+02       1.26452e+01       1.50811e+01       9.26484e-04       7.38631e+02
  2.700      2.77154e+02       1.25219e+01       1.53827e+01       9.17282e-04       7.29634e+02
  2.800      2.76522e+02       1.23712e+01       1.57353e+01       9.08155e-04       7.20727e+02
  2.900      2.75892e+02       1.22060e+01       1.61272e+01       8.99090e-04       7.11908e+02
  3.000      2.75268e+02       1.20396e+01       1.65469e+01       8.90076e-04       7.03178e+02
  3.100      2.74654e+02       1.18846e+01       1.69831e+01       8.81105e-04       6.94537e+02
  3.200      2.74049e+02       1.17482e+01       1.74284e+01       8.72175e-04       6.85984e+02
  3.300      2.73451e+02       1.16339e+01       1.78783e+01       8.63295e-04       6.77517e+02
  3.400      2.72857e+02       1.15450e+01       1.83282e+01       8.54473e-04       6.69137e+02
  3.500      2.72265e+02       1.14849e+01       1.87736e+01       8.45717e-04       6.60843e+02
  3.600      2.71672e+02       1.14569e+01       1.92099e+01       8.37033e-04       6.52633e+02
  3.700      2.71076e+02       1.14642e+01       1.96323e+01       8.28427e-04       6.44507e+02
  3.800      2.70478e+02       1.15090e+01       2.00309e+01       8.19898e-04       6.36465e+02
  3.900      2.69880e+02       1.15922e+01       2.03929e+01       8.11439e-04       6.28505e+02
  4.000      2.69284e+02       1.17150e+01       2.07055e+01       8.03041e-04       6.20627e+02
  4.100      2.68693e+02       1.18785e+01       2.09557e+01       7.94698e-04       6.12830e+02
  4.200      2.68108e+02       1.20840e+01       2.11307e+01       7.86403e-04       6.05114e+02
  4.300      2.67533e+02       1.23324e+01       2.12179e+01       7.78149e-04       5.97478e+02
  4.400      2.66968e+02       1.26200e+01       2.12158e+01       7.69935e-04       5.89922e+02
  4.500      2.66411e+02       1.29356e+01       2.11406e+01       7.61763e-04       5.82444e+02
  4.600      2.65863e+02       1.32672e+01       2.10100e+01       7.53637e-04       5.75045e+02
  4.700      2.65321e+02       1.36030e+01       2.08418e+01       7.45562e-04       5.67724e+02
  4.800      2.64785e+02       1.39310e+01       2.06537e+01       7.37541e-04       5.60481e+02
  4.900      2.64253e+02       1.42394e+01       2.04634e+01       7.29578e-04       5.53315e+02
  5.000      2.63723e+02       1.45164e+01       2.02881e+01       7.21676e-04       5.46227e+02
  5.100      2.63195e+02       1.47551e+01       2.01347e+01       7.13840e-04       5.39214e+02
  5.200      2.62665e+02       1.49525e+01       2.00010e+01       7.06080e-04       5.32277e+02
  5.300      2.62130e+02       1.51059e+01       1.98841e+01       6.98402e-04       5.25416e+02
  5.400      2.61587e+02       1.52127e+01       1.97815e+01       6.90813e-04       5.18630e+02
  5.500      2.61032e+02       1.52701e+01       1.96902e+01       6.83321e-04       5.11918e+02
  5.600      2.60464e+02       1.52754e+01       1.96078e+01       6.75932e-04       5.05280e+02
  5.700      2.59879e+02       1.52259e+01       1.95313e+01       6.68653e-04       4.98716e+02
  5.800      2.59274e+02       1.51228e+01       1.94613e+01       6.61486e-04       4.92224e+02
  5.900      2.58652e+02       1.49762e+01       1.94052e+01       6.54428e-04       4.85802e+02
  6.000      2.58011e+02       1.47971e+01       1.93713e+01       6.47472e-04       4.79447e+02
  6.100      2.57353e+02       1.45968e+01       1.93682e+01       6.40612e-04       4.73159e+02
  6.200      2.56679e+02       1.43864e+01       1.94041e+01       6.33844e-04       4.66934e+02
  6.300      2.55990e+02       1.41772e+01       1.94874e+01       6.27163e-04       4.60771e+02
  6.400      2.55285e+02       1.39803e+01       1.96267e+01       6.20564e-04       4.54667e+02
  6.500      2.54566e+02       1.38069e+01       1.98301e+01       6.14041e-04       4.48622e+02
  6.600      2.53835e+02       1.36641e+01       2.01016e+01       6.07592e-04       4.42634e+02
  6.700      2.53093e+02       1.35509e+01       2.04355e+01       6.01211e-04       4.36706e+02
  6.800      2.52344e+02       1.34653e+01       2.08250e+01       5.94897e-04       4.30841e+02
  6.900      2.51592e+02       1.34051e+01       2.12632e+01       5.88645e-04       4.25043e+02
  7.000      2.50839e+02       1.33683e+01       2.17434e+01       5.82453e-04       4.19312e+02
  7.100      2.50088e+02       1.33529e+01       2.22588e+01       5.76317e-04       4.13653e+02
  7.200      2.49342e+02       1.33567e+01       2.28025e+01       5.70234e-04       4.08066e+02
  7.300      2.48605e+02       1.33778e+01       2.33679e+01       5.64201e-04       4.02555e+02
  7.400      2.47878e+02       1.34139e+01       2.39480e+01       5.58214e-04       3.97120e+02
  7.500      2.47163e+02       1.34615e+01       2.45368e+01       5.52270e-04       3.91757e+02
  7.600      2.46456e+02       1.35152e+01       2.51285e+01       5.46360e-04       3.86456e+02
  7.700      2.45754e+02       1.35700e+01       2.57177e+01       5.40480e-04       3.81209e+02
  7.800      2.45055e+02       1.36206e+01       2.62985e+01       5.34623e-04       3.76004e+02
  7.900      2.44355e+02       1.36619e+01       2.68655e+01       5.28784e-04       3.70835e+02
  8.000      2.43652e+02       1.36886e+01       2.74131e+01       5.22957e-04       3.65693e+02
  8.100      2.42942e+02       1.36956e+01       2.79355e+01       5.17137e-04       3.60570e+02
  8.200      2.42223e+02       1.36776e+01       2.84272e+01       5.11321e-04       3.55460e+02
  8.300      2.41491e+02       1.36295e+01       2.88826e+01       5.05504e-04       3.50354e+02
  8.400      2.40745e+02       1.35476e+01       2.92971e+01       4.99686e-04       3.45253e+02
  8.500      2.39988e+02       1.34358e+01       2.96712e+01       4.93891e-04       3.40175e+02
  8.600      2.39222e+02       1.33005e+01       3.00069e+01       4.88147e-04       3.35147e+02
  8.700      2.38453e+02       1.31478e+01       3.03065e+01       4.82483e-04       3.30192e+02
  8.800      2.37684e+02       1.29840e+01       3.05718e+01       4.76923e-04       3.25334e+02
  8.900      2.36918e+02       1.28155e+01       3.08051e+01       4.71494e-04       3.20594e+02
  9.000      2.36160e+02       1.26484e+01       3.10083e+01       4.66217e-04       3.15992e+02
  9.100      2.35413e+02       1.24890e+01       3.11837e+01       4.61116e-04       3.11547e+02
  9.200      2.34682e+02       1.23437e+01       3.13331e+01       4.56212e-04       3.07276e+02
  9.300      2.33971e+02       1.22186e+01       3.14588e+01       4.51525e-04       3.03197e+02
  9.400      2.33282e+02       1.21201e+01       3.15629e+01       4.47074e-04       2.99325e+02
  9.500      2.32620e+02       1.20516e+01       3.16464e+01       4.42864e-04       2.95665e+02
  9.600      2.31983e+02       1.20100e+01       3.17083e+01       4.38869e-04       2.92196e+02
  9.700      2.31372e+02       1.19914e+01       3.17473e+01       4.35060e-04       2.88896e+02
  9.800      2.30785e+02       1.19918e+01       3.17621e+01       4.31407e-04       2.85743e+02
  9.900      2.30221e+02       1.20071e+01       3.17514e+01       4.27884e-04       2.82718e+02
 10.000      2.29681e+02       1.20333e+01       3.17137e+01       4.24463e-04       2.79799e+02
 10.100      2.29163e+02       1.20664e+01       3.16478e+01       4.21118e-04       2.76968e+02
 10.200      2.28667e+02       1.21024e+01       3.15523e+01       4.17826e-04       2.74208e+02
 10.300      2.28191e+02       1.21373e+01       3.14259e+01       4.14561e-04       2.71500e+02
 10.400      2.27737e+02       1.21670e+01       3.12673e+01       4.11301e-04       2.68828e+02
 10.500      2.27302e+02       1.21877e+01       3.10750e+01       4.08022e-04       2.66176e+02
 10.600      2.26886e+02       1.21952e+01       3.08478e+01       4.04703e-04       2.63528e+02
 10.700      2.26489e+02       1.21855e+01       3.05844e+01       4.01323e-04       2.60869e+02
 10.800      2.26109e+02       1.21547e+01       3.02834e+01       3.97861e-04       2.58185e+02
 10.900      2.25747e+02       1.20987e+01       2.99434e+01       3.94298e-04       2.55462e+02
 11.000      2.25401e+02       1.20135e+01       2.95631e+01       3.90615e-04       2.52688e+02
 11.100      2.25070e+02       1.18951e+01       2.91412e+01       3.86794e-04       2.49850e+02
 11.200      2.24755e+02       1.17414e+01       2.86771e+01       3.82824e-04       2.46940e+02
 11.300      2.24455e+02       1.15570e+01       2.81728e+01       3.78707e-04       2.43957e+02
 11.400      2.24167e+02       1.13480e+01       2.76308e+01       3.74451e-04       2.40907e+02
 11.500      2.23893e+02       1.11203e+01       2.70537e+01       3.70061e-04       2.37791e+02
 11.600      2.23630e+02       1.08799e+01       2.64439e+01       3.65546e-04       2.34614e+02
 11.700      2.23378e+02       1.06329e+01       2.58041e+01       3.60913e-04       2.31380e+02
 11.800      2.23137e+02       1.03852e+01       2.51367e+01       3.56167e-04       2.28090e+02
 11.900      2.22904e+02       1.01428e+01       2.44442e+01       3.51317e-04       2.24750e+02
 12.000      2.22680e+02       9.91180e+00       2.37293e+01       3.46370e-04       2.21362e+02
 12.100      2.22464e+02       9.69814e+00       2.29945e+01       3.41332e-04       2.17931e+02
 12.200      2.22254e+02       9.50783e+00       2.22422e+01       3.36211e-04       2.14459e+02
 12.300      2.22051e+02       9.34687e+00       2.14750e+01       3.31014e-04       2.10951e+02
 12.400      2.21852e+02       9.22129e+00       2.06955e+01       3.25748e-04       2.07409e+02
 12.500      2.21658e+02       9.13707e+00       1.99062e+01       3.20420e-04       2.03838e+02
 12.600      2.21467e+02       9.10022e+00       1.91095e+01       3.15036e-04       2.00240e+02
 12.700      2.21279e+02       9.11504e+00       1.83082e+01       3.09606e-04       1.96622e+02
 12.800      2.21093e+02       9.17747e+00       1.75051e+01       3.04148e-04       1.92993e+02
 12.900      2.20907e+02       9.28090e+00       1.67031e+01       2.98683e-04       1.89366e+02
 13.000      2.20722e+02       9.41872e+00       1.59054e+01       2.93231e-04       1.85753e+02
 13.100      2.20535e+02       9.58432e+00       1.51148e+01       2.87809e-04       1.82164e+02
 13.200      2.20347e+02       9.77110e+00       1.43343e+01       2.82434e-04       1.78610e+02
 13.300      2.20156e+02       9.97243e+00       1.35669e+01       2.77123e-04       1.75099e+02
 13.400      2.19961e+02       1.01817e+01       1.28157e+01       2.71890e-04       1.71641e+02
 13.500      2.19762e+02       1.03924e+01       1.20836e+01       2.66749e-04       1.68243e+02
 13.600      2.19558e+02       1.05978e+01       1.13735e+01       2.61711e-04       1.64912e+02
 13.700      2.19347e+02       1.07913e+01       1.06885e+01       2.56789e-04       1.61655e+02
 13.800      2.19129e+02       1.09663e+01       1.00315e+01       2.51993e-04       1.58479e+02
 13.900      2.18903e+02       1.11162e+01       9.40560e+00       2.47333e-04       1.55388e+02
 14.000      2.18669e+02       1.12345e+01       8.81369e+00       2.42817e-04       1.52387e+02
 14.100      2.18424e+02       1.13144e+01       8.25877e+00       2.38452e-04       1.49481e+02
 14.200      2.18170e+02       1.13519e+01       7.74260e+00       2.34243e-04       1.46671e+02
 14.300      2.17906e+02       1.13483e+01       7.26406e+00       2.30182e-04       1.43953e+02
 14.400      2.17633e+02       1.13058e+01       6.82162e+00       2.26259e-04       1.41323e+02
 14.500      2.17353e+02       1.12268e+01       6.41371e+00       2.22467e-04       1.38775e+02
 14.600      2.17066e+02       1.11134e+01       6.03882e+00       2.18798e-04       1.36307e+02
 14.700      2.16774e+02       1.09679e+01       5.69541e+00       2.15245e-04       1.33912e+02
 14.800      2.16476e+02       1.07925e+01       5.38193e+00       2.11800e-04       1.31589e+02
 14.900      2.16175e+02       1.05895e+01       5.09684e+00       2.08458e-04       1.29332e+02
 15.000      2.15871e+02       1.03612e+01       4.83861e+00       2.05212e-04       1.27139e+02
 15.100      2.15564e+02       1.01096e+01       4.60570e+00       2.02056e-04       1.25006e+02
 15.200      2.15257e+02       9.83722e+00       4.39657e+00       1.98984e-04       1.22930e+02
 15.300      2.14949e+02       9.54614e+00       4.20968e+00       1.95991e-04       1.20907e+02
 15.400      2.14642e+02       9.23863e+00       4.04350e+00       1.93072e-04       1.18936e+02
 15.500      2.14336e+02       8.91694e+00       3.89648e+00       1.90221e-04       1.17014e+02
 15.600      2.14033e+02       8.58330e+00       3.76708e+00       1.87435e-04       1.15137e+02
 15.700      2.13734e+02       8.23997e+00       3.65377e+00       1.84709e-04       1.13303e+02
 15.800      2.13438e+02       7.88917e+00       3.55501e+00       1.82038e-04       1.11511e+02
 15.900      2.13148e+02       7.53316e+00       3.46927e+00       1.79418e-04       1.09757e+02
 16.000      2.12864e+02       7.17416e+00       3.39499e+00       1.76846e-04       1.08039e+02
 16.100      2.12588e+02       6.81443e+00       3.33064e+00       1.74318e-04       1.06356e+02
 16.200      2.12319e+02       6.45620e+00       3.27470e+00       1.71830e-04       1.04706e+02
 16.300      2.12059e+02       6.10172e+00       3.22560e+00       1.69379e-04       1.03086e+02
 16.400      2.11808e+02       5.75322e+00       3.18183e+00       1.66962e-04       1.01495e+02
 16.500      2.11569e+02       5.41293e+00       3.14183e+00       1.64576e-04       9.99311e+01
 16.600      2.11341e+02       5.08270e+00       3.10438e+00       1.62218e-04       9.83931e+01
 16.700      2.11125e+02       4.76285e+00       3.06926e+00       1.59887e-04       9.68799e+01
 16.800      2.10921e+02       4.45340e+00       3.03651e+00       1.57581e-04       9.53908e+01
 16.900      2.10729e+02       4.15438e+00       3.00616e+00       1.55301e-04       9.39248e+01
 17.000      2.10549e+02       3.86579e+00       2.97824e+00       1.53044e-04       9.24812e+01
 17.100      2.10382e+02       3.58767e+00       2.95278e+00       1.50811e-04       9.10594e+01
 17.200      2.10228e+02       3.32002e+00       2.92980e+00       1.48600e-04       8.96586e+01
 17.300      2.10087e+02       3.06287e+00       2.90933e+00       1.46411e-04       8.82782e+01
 17.400      2.09959e+02       2.81624e+00       2.89141e+00       1.44242e-04       8.69176e+01
 17.500      2.09844e+02       2.58014e+00       2.87607e+00       1.42093e-04       8.55761e+01
 17.600      2.09743e+02       2.35459e+00       2.86333e+00       1.39964e-04       8.42531e+01
 17.700      2.09656e+02       2.13962e+00       2.85322e+00       1.37854e-04       8.29481e+01
 17.800      2.09582e+02       1.93524e+00       2.84577e+00       1.35761e-04       8.16605e+01
 17.900      2.09523e+02       1.74146e+00       2.84101e+00       1.33687e-04       8.03899e+01
 18.000      2.09478e+02       1.55832e+00       2.83898e+00       1.31629e-04       7.91357e+01
 18.100      2.09447e+02       1.38582e+00       2.83969e+00       1.29589e-04       7.78974e+01
 18.200      2.09431e+02       1.22399e+00       2.84319e+00       1.27564e-04       7.66746e+01
 18.300      2.09430e+02       1.07284e+00       2.84949e+00       1.25556e-04       7.54670e+01
 18.400      2.09444e+02       9.32393e-01       2.85863e+00       1.23562e-04       7.42739e+01
 18.500      2.09473e+02       8.02668e-01       2.87063e+00       1.21584e-04       7.30951e+01
 18.600      2.09518e+02       6.83684e-01       2.88554e+00       1.19621e-04       7.19302e+01
 18.700      2.09579e+02       5.75459e-01       2.90337e+00       1.17672e-04       7.07788e+01
 18.800      2.09655e+02       4.78011e-01       2.92415e+00       1.15738e-04       6.96406e+01
 18.900      2.09747e+02       3.91128e-01       2.94775e+00       1.13818e-04       6.85156e+01
 19.000      2.09853e+02       3.14248e-01       2.97379e+00       1.11915e-04       6.74041e+01
 19.100      2.09974e+02       2.46771e-01       3.00185e+00       1.10030e-04       6.63067e+01
 19.200      2.10107e+02       1.88099e-01       3.03153e+00       1.08164e-04       6.52237e+01
 19.300      2.10252e+02       1.37634e-01       3.06242e+00       1.06319e-04       6.41554e+01
 19.400      2.10408e+02       9.47760e-02       3.09411e+00       1.04496e-04       6.31023e+01
 19.500      2.10574e+02       5.89266e-02       3.12618e+00       1.02697e-04       6.20647e+01
 19.600      2.10750e+02       2.94873e-02       3.15823e+00       1.00922e-04       6.10427e+01
 19.700      2.10933e+02       5.85946e-03       3.18986e+00       9.91724e-05       6.00368e+01
 19.800      2.11124e+02      -1.25552e-02       3.22064e+00       9.74494e-05       5.90470e+01
 19.900      2.11320e+02      -2.63562e-02       3.25017e+00       9.57536e-05       5.80736e+01
 20.000      2.11522e+02      -3.61416e-02       3.27804e+00       9.40859e-05       5.71167e+01
 20.100      2.11729e+02      -4.25104e-02       3.30385e+00       9.24469e-05       5.61765e+01
 20.200      2.11939e+02      -4.60610e-02       3.32717e+00       9.08374e-05       5.52531e+01
 20.300      2.12151e+02      -4.73921e-02       3.34761e+00       8.92576e-05       5.43466e+01
