# Data Source: NASA GEOS5 Near-Real-Time
# Model Time = 2010-06-20 18:00:00
# Location = [  39.7393, -104.9900 ]
# Fields = [ Z(km), T(K), U(m/s), V(m/s), R(g/cm3), P(mbar) ]
# Ground Height = 1.589
  0.000      3.08686e+02       7.98697e-01       1.62206e+00       1.14263e-03       1.01229e+03
  0.100      3.08063e+02       7.58019e-01       1.63201e+00       1.13156e-03       1.00046e+03
  0.200      3.07440e+02       7.17069e-01       1.64153e+00       1.12060e-03       9.88766e+02
  0.300      3.06808e+02       6.82864e-01       1.66148e+00       1.10980e-03       9.77226e+02
  0.400      3.06160e+02       6.61601e-01       1.69794e+00       1.09920e-03       9.65847e+02
  0.500      3.05510e+02       6.53539e-01       1.72235e+00       1.08873e-03       9.54617e+02
  0.600      3.04879e+02       6.55267e-01       1.69453e+00       1.07830e-03       9.43520e+02
  0.700      3.04259e+02       6.46793e-01       1.63256e+00       1.06794e-03       9.32550e+02
  0.800      3.03617e+02       5.95340e-01       1.60067e+00       1.05777e-03       9.21719e+02
  0.900      3.02944e+02       5.03180e-01       1.62704e+00       1.04782e-03       9.11028e+02
  1.000      3.02268e+02       4.31931e-01       1.67717e+00       1.03800e-03       9.00472e+02
  1.100      3.01616e+02       4.32896e-01       1.71433e+00       1.02820e-03       8.90044e+02
  1.200      3.00992e+02       4.84236e-01       1.71891e+00       1.01840e-03       8.79743e+02
  1.300      3.00390e+02       5.43910e-01       1.67714e+00       1.00864e-03       8.69569e+02
  1.400      2.99771e+02       5.84076e-01       1.59355e+00       9.99048e-04       8.59524e+02
  1.500      2.99063e+02       5.89842e-01       1.48940e+00       9.89860e-04       8.49608e+02
  1.600      2.98218e+02       5.56368e-01       1.38654e+00       9.81227e-04       8.39819e+02
  1.700      2.97277e+02       5.12819e-01       1.30686e+00       9.72991e-04       8.30142e+02
  1.800      2.96300e+02       4.95526e-01       1.27169e+00       9.64935e-04       8.20562e+02
  1.900      2.95337e+02       5.30321e-01       1.28683e+00       9.56884e-04       8.11073e+02
  2.000      2.94432e+02       6.31518e-01       1.34101e+00       9.48707e-04       8.01675e+02
  2.100      2.93619e+02       8.12724e-01       1.42248e+00       9.40293e-04       7.92372e+02
  2.200      2.92906e+02       1.08672e+00       1.52212e+00       9.31629e-04       7.83164e+02
  2.300      2.92283e+02       1.46593e+00       1.63193e+00       9.22747e-04       7.74049e+02
  2.400      2.91741e+02       1.94733e+00       1.75413e+00       9.13690e-04       7.65030e+02
  2.500      2.91253e+02       2.48264e+00       1.92090e+00       9.04546e-04       7.56107e+02
  2.600      2.90793e+02       3.01579e+00       2.16953e+00       8.95403e-04       7.47283e+02
  2.700      2.90334e+02       3.52270e+00       2.51146e+00       8.86351e-04       7.38559e+02
  2.800      2.89846e+02       4.03221e+00       2.91546e+00       8.77469e-04       7.29929e+02
  2.900      2.89300e+02       4.57742e+00       3.34649e+00       8.68837e-04       7.21387e+02
  3.000      2.88682e+02       5.16723e+00       3.77636e+00       8.60491e-04       7.12930e+02
  3.100      2.87993e+02       5.78111e+00       4.18525e+00       8.52415e-04       7.04556e+02
  3.200      2.87239e+02       6.39672e+00       4.55417e+00       8.44592e-04       6.96262e+02
  3.300      2.86428e+02       6.99124e+00       4.87313e+00       8.36989e-04       6.88044e+02
  3.400      2.85576e+02       7.54138e+00       5.14238e+00       8.29548e-04       6.79900e+02
  3.500      2.84701e+02       8.02428e+00       5.36287e+00       8.22215e-04       6.71826e+02
  3.600      2.83816e+02       8.43597e+00       5.54120e+00       8.14950e-04       6.63819e+02
  3.700      2.82929e+02       8.79745e+00       5.69146e+00       8.07732e-04       6.55883e+02
  3.800      2.82048e+02       9.13133e+00       5.82824e+00       8.00540e-04       6.48019e+02
  3.900      2.81176e+02       9.45179e+00       5.96526e+00       7.93367e-04       6.40229e+02
  4.000      2.80309e+02       9.75673e+00       6.11452e+00       7.86228e-04       6.32510e+02
  4.100      2.79438e+02       1.00422e+01       6.28781e+00       7.79140e-04       6.24860e+02
  4.200      2.78558e+02       1.03032e+01       6.49489e+00       7.72116e-04       6.17278e+02
  4.300      2.77671e+02       1.05302e+01       6.73768e+00       7.65154e-04       6.09763e+02
  4.400      2.76777e+02       1.07130e+01       7.01626e+00       7.58250e-04       6.02316e+02
  4.500      2.75879e+02       1.08429e+01       7.33056e+00       7.51399e-04       5.94936e+02
  4.600      2.74976e+02       1.09314e+01       7.67885e+00       7.44600e-04       5.87625e+02
  4.700      2.74068e+02       1.10024e+01       8.05841e+00       7.37857e-04       5.80380e+02
  4.800      2.73153e+02       1.10797e+01       8.46645e+00       7.31170e-04       5.73201e+02
  4.900      2.72233e+02       1.11815e+01       8.89758e+00       7.24538e-04       5.66088e+02
  5.000      2.71312e+02       1.13151e+01       9.34133e+00       7.17947e-04       5.59040e+02
  5.100      2.70394e+02       1.14862e+01       9.78662e+00       7.11385e-04       5.52057e+02
  5.200      2.69484e+02       1.16990e+01       1.02229e+01       7.04840e-04       5.45137e+02
  5.300      2.68584e+02       1.19398e+01       1.06454e+01       6.98309e-04       5.38281e+02
  5.400      2.67691e+02       1.21843e+01       1.10525e+01       6.91795e-04       5.31488e+02
  5.500      2.66805e+02       1.24081e+01       1.14427e+01       6.85301e-04       5.24757e+02
  5.600      2.65926e+02       1.25943e+01       1.18166e+01       6.78831e-04       5.18089e+02
  5.700      2.65050e+02       1.27526e+01       1.21827e+01       6.72392e-04       5.11484e+02
  5.800      2.64174e+02       1.28988e+01       1.25510e+01       6.65993e-04       5.04943e+02
  5.900      2.63296e+02       1.30487e+01       1.29318e+01       6.59643e-04       4.98465e+02
  6.000      2.62414e+02       1.32124e+01       1.33304e+01       6.53345e-04       4.92052e+02
  6.100      2.61526e+02       1.33886e+01       1.37434e+01       6.47101e-04       4.85702e+02
  6.200      2.60633e+02       1.35748e+01       1.41660e+01       6.40911e-04       4.79411e+02
  6.300      2.59732e+02       1.37684e+01       1.45935e+01       6.34774e-04       4.73179e+02
  6.400      2.58826e+02       1.39706e+01       1.50241e+01       6.28685e-04       4.67006e+02
  6.500      2.57920e+02       1.41886e+01       1.54608e+01       6.22631e-04       4.60890e+02
  6.600      2.57021e+02       1.44303e+01       1.59072e+01       6.16598e-04       4.54834e+02
  6.700      2.56136e+02       1.47036e+01       1.63668e+01       6.10572e-04       4.48838e+02
  6.800      2.55269e+02       1.50144e+01       1.68404e+01       6.04543e-04       4.42902e+02
  6.900      2.54426e+02       1.53640e+01       1.73223e+01       5.98498e-04       4.37025e+02
  7.000      2.53611e+02       1.57529e+01       1.78061e+01       5.92430e-04       4.31208e+02
  7.100      2.52828e+02       1.61819e+01       1.82854e+01       5.86329e-04       4.25451e+02
  7.200      2.52081e+02       1.66497e+01       1.87515e+01       5.80191e-04       4.19751e+02
  7.300      2.51359e+02       1.71449e+01       1.91856e+01       5.74037e-04       4.14111e+02
  7.400      2.50652e+02       1.76533e+01       1.95655e+01       5.67898e-04       4.08530e+02
  7.500      2.49948e+02       1.81604e+01       1.98692e+01       5.61802e-04       4.03009e+02
  7.600      2.49234e+02       1.86519e+01       2.00754e+01       5.55775e-04       3.97547e+02
  7.700      2.48510e+02       1.91120e+01       2.01925e+01       5.49821e-04       3.92144e+02
  7.800      2.47783e+02       1.95239e+01       2.02620e+01       5.43918e-04       3.86801e+02
  7.900      2.47065e+02       1.98704e+01       2.03273e+01       5.38046e-04       3.81516e+02
  8.000      2.46365e+02       2.01345e+01       2.04321e+01       5.32182e-04       3.76288e+02
  8.100      2.45691e+02       2.03020e+01       2.06143e+01       5.26309e-04       3.71118e+02
  8.200      2.45044e+02       2.03838e+01       2.08646e+01       5.20429e-04       3.66005e+02
  8.300      2.44416e+02       2.04040e+01       2.11496e+01       5.14557e-04       3.60949e+02
  8.400      2.43804e+02       2.03864e+01       2.14358e+01       5.08705e-04       3.55949e+02
  8.500      2.43200e+02       2.03551e+01       2.16894e+01       5.02887e-04       3.51007e+02
  8.600      2.42599e+02       2.03333e+01       2.18810e+01       4.97115e-04       3.46121e+02
  8.700      2.41995e+02       2.03378e+01       2.20128e+01       4.91404e-04       3.41292e+02
  8.800      2.41378e+02       2.03826e+01       2.21010e+01       4.85768e-04       3.36518e+02
  8.900      2.40742e+02       2.04818e+01       2.21621e+01       4.80220e-04       3.31798e+02
  9.000      2.40078e+02       2.06494e+01       2.22126e+01       4.74774e-04       3.27131e+02
  9.100      2.39380e+02       2.08981e+01       2.22682e+01       4.69442e-04       3.22516e+02
  9.200      2.38649e+02       2.12177e+01       2.23315e+01       4.64217e-04       3.17953e+02
  9.300      2.37898e+02       2.15768e+01       2.23933e+01       4.59075e-04       3.13441e+02
  9.400      2.37136e+02       2.19435e+01       2.24439e+01       4.53994e-04       3.08980e+02
  9.500      2.36377e+02       2.22858e+01       2.24737e+01       4.48950e-04       3.04569e+02
  9.600      2.35632e+02       2.25717e+01       2.24729e+01       4.43921e-04       3.00207e+02
  9.700      2.34908e+02       2.27781e+01       2.24351e+01       4.38893e-04       2.95896e+02
  9.800      2.34204e+02       2.29239e+01       2.23679e+01       4.33872e-04       2.91634e+02
  9.900      2.33511e+02       2.30396e+01       2.22835e+01       4.28873e-04       2.87420e+02
 10.000      2.32821e+02       2.31561e+01       2.21936e+01       4.23910e-04       2.83255e+02
 10.100      2.32128e+02       2.33041e+01       2.21102e+01       4.18996e-04       2.79138e+02
 10.200      2.31424e+02       2.35142e+01       2.20454e+01       4.14145e-04       2.75069e+02
 10.300      2.30703e+02       2.38083e+01       2.20106e+01       4.09365e-04       2.71048e+02
 10.400      2.29967e+02       2.41709e+01       2.20163e+01       4.04652e-04       2.67073e+02
 10.500      2.29221e+02       2.45768e+01       2.20726e+01       3.99998e-04       2.63144e+02
 10.600      2.28466e+02       2.50005e+01       2.21896e+01       3.95397e-04       2.59261e+02
 10.700      2.27709e+02       2.54168e+01       2.23774e+01       3.90839e-04       2.55423e+02
 10.800      2.26951e+02       2.58004e+01       2.26462e+01       3.86319e-04       2.51628e+02
 10.900      2.26197e+02       2.61272e+01       2.30046e+01       3.81829e-04       2.47878e+02
 11.000      2.25451e+02       2.63961e+01       2.34410e+01       3.77364e-04       2.44171e+02
 11.100      2.24716e+02       2.66250e+01       2.39262e+01       3.72916e-04       2.40507e+02
 11.200      2.23999e+02       2.68322e+01       2.44304e+01       3.68480e-04       2.36887e+02
 11.300      2.23301e+02       2.70363e+01       2.49238e+01       3.64050e-04       2.33310e+02
 11.400      2.22629e+02       2.72557e+01       2.53768e+01       3.59620e-04       2.29778e+02
 11.500      2.21986e+02       2.75089e+01       2.57596e+01       3.55186e-04       2.26289e+02
 11.600      2.21375e+02       2.78130e+01       2.60446e+01       3.50742e-04       2.22843e+02
 11.700      2.20799e+02       2.81670e+01       2.62319e+01       3.46290e-04       2.19441e+02
 11.800      2.20253e+02       2.85569e+01       2.63420e+01       3.41835e-04       2.16083e+02
 11.900      2.19737e+02       2.89682e+01       2.63954e+01       3.37381e-04       2.12768e+02
 12.000      2.19249e+02       2.93867e+01       2.64129e+01       3.32934e-04       2.09497e+02
 12.100      2.18785e+02       2.97981e+01       2.64152e+01       3.28499e-04       2.06268e+02
 12.200      2.18344e+02       3.01879e+01       2.64229e+01       3.24079e-04       2.03083e+02
 12.300      2.17923e+02       3.05420e+01       2.64568e+01       3.19679e-04       1.99940e+02
 12.400      2.17522e+02       3.08486e+01       2.65310e+01       3.15303e-04       1.96840e+02
 12.500      2.17140e+02       3.11059e+01       2.66343e+01       3.10952e-04       1.93783e+02
 12.600      2.16778e+02       3.13145e+01       2.67497e+01       3.06624e-04       1.90768e+02
 12.700      2.16437e+02       3.14748e+01       2.68603e+01       3.02321e-04       1.87794e+02
 12.800      2.16118e+02       3.15876e+01       2.69490e+01       2.98042e-04       1.84863e+02
 12.900      2.15821e+02       3.16532e+01       2.69989e+01       2.93787e-04       1.81973e+02
 13.000      2.15547e+02       3.16722e+01       2.69929e+01       2.89555e-04       1.79125e+02
 13.100      2.15297e+02       3.16453e+01       2.69139e+01       2.85348e-04       1.76317e+02
 13.200      2.15071e+02       3.15730e+01       2.67457e+01       2.81165e-04       1.73550e+02
 13.300      2.14869e+02       3.14578e+01       2.64833e+01       2.77009e-04       1.70824e+02
 13.400      2.14690e+02       3.13040e+01       2.61328e+01       2.72881e-04       1.68139e+02
 13.500      2.14531e+02       3.11157e+01       2.57007e+01       2.68787e-04       1.65494e+02
 13.600      2.14392e+02       3.08974e+01       2.51933e+01       2.64729e-04       1.62889e+02
 13.700      2.14269e+02       3.06531e+01       2.46171e+01       2.60710e-04       1.60325e+02
 13.800      2.14163e+02       3.03874e+01       2.39787e+01       2.56734e-04       1.57801e+02
 13.900      2.14070e+02       3.01043e+01       2.32843e+01       2.52802e-04       1.55316e+02
 14.000      2.13989e+02       2.98082e+01       2.25405e+01       2.48917e-04       1.52872e+02
 14.100      2.13919e+02       2.95034e+01       2.17538e+01       2.45082e-04       1.50468e+02
 14.200      2.13858e+02       2.91932e+01       2.09308e+01       2.41298e-04       1.48102e+02
 14.300      2.13804e+02       2.88746e+01       2.00806e+01       2.37567e-04       1.45775e+02
 14.400      2.13755e+02       2.85417e+01       1.92130e+01       2.33887e-04       1.43484e+02
 14.500      2.13709e+02       2.81887e+01       1.83379e+01       2.30261e-04       1.41229e+02
 14.600      2.13664e+02       2.78095e+01       1.74653e+01       2.26686e-04       1.39007e+02
 14.700      2.13618e+02       2.73984e+01       1.66050e+01       2.23163e-04       1.36818e+02
 14.800      2.13569e+02       2.69493e+01       1.57671e+01       2.19693e-04       1.34659e+02
 14.900      2.13515e+02       2.64564e+01       1.49614e+01       2.16275e-04       1.32531e+02
 15.000      2.13455e+02       2.59137e+01       1.41979e+01       2.12908e-04       1.30431e+02
 15.100      2.13386e+02       2.53154e+01       1.34864e+01       2.09594e-04       1.28359e+02
 15.200      2.13306e+02       2.46555e+01       1.28369e+01       2.06331e-04       1.26313e+02
 15.300      2.13214e+02       2.39283e+01       1.22591e+01       2.03119e-04       1.24293e+02
 15.400      2.13109e+02       2.31335e+01       1.17565e+01       1.99958e-04       1.22299e+02
 15.500      2.12992e+02       2.22795e+01       1.13225e+01       1.96847e-04       1.20330e+02
 15.600      2.12867e+02       2.13751e+01       1.09501e+01       1.93787e-04       1.18390e+02
 15.700      2.12734e+02       2.04291e+01       1.06321e+01       1.90776e-04       1.16478e+02
 15.800      2.12597e+02       1.94505e+01       1.03614e+01       1.87813e-04       1.14595e+02
 15.900      2.12457e+02       1.84482e+01       1.01309e+01       1.84899e-04       1.12743e+02
 16.000      2.12317e+02       1.74310e+01       9.93348e+00       1.82033e-04       1.10921e+02
 16.100      2.12177e+02       1.64078e+01       9.76194e+00       1.79213e-04       1.09132e+02
 16.200      2.12042e+02       1.53875e+01       9.60917e+00       1.76440e-04       1.07374e+02
 16.300      2.11911e+02       1.43791e+01       9.46806e+00       1.73713e-04       1.05650e+02
 16.400      2.11789e+02       1.33913e+01       9.33146e+00       1.71031e-04       1.03959e+02
 16.500      2.11676e+02       1.24331e+01       9.19224e+00       1.68394e-04       1.02301e+02
 16.600      2.11575e+02       1.15134e+01       9.04328e+00       1.65801e-04       1.00678e+02
 16.700      2.11488e+02       1.06407e+01       8.87772e+00       1.63252e-04       9.90887e+01
 16.800      2.11415e+02       9.81774e+00       8.69328e+00       1.60744e-04       9.75333e+01
 16.900      2.11356e+02       9.04263e+00       8.49141e+00       1.58278e-04       9.60100e+01
 17.000      2.11311e+02       8.31327e+00       8.27367e+00       1.55850e-04       9.45172e+01
 17.100      2.11280e+02       7.62760e+00       8.04165e+00       1.53459e-04       9.30536e+01
 17.200      2.11261e+02       6.98354e+00       7.79691e+00       1.51105e-04       9.16176e+01
 17.300      2.11255e+02       6.37900e+00       7.54103e+00       1.48784e-04       9.02082e+01
 17.400      2.11261e+02       5.81189e+00       7.27555e+00       1.46497e-04       8.88239e+01
 17.500      2.11278e+02       5.28015e+00       7.00207e+00       1.44242e-04       8.74636e+01
 17.600      2.11307e+02       4.78169e+00       6.72214e+00       1.42017e-04       8.61263e+01
 17.700      2.11347e+02       4.31443e+00       6.43733e+00       1.39821e-04       8.48106e+01
 17.800      2.11397e+02       3.87631e+00       6.14922e+00       1.37654e-04       8.35157e+01
 17.900      2.11457e+02       3.46522e+00       5.85938e+00       1.35513e-04       8.22405e+01
 18.000      2.11527e+02       3.07910e+00       5.56936e+00       1.33399e-04       8.09840e+01
 18.100      2.11606e+02       2.71586e+00       5.28074e+00       1.31310e-04       7.97455e+01
 18.200      2.11694e+02       2.37343e+00       4.99510e+00       1.29244e-04       7.85239e+01
 18.300      2.11790e+02       2.04973e+00       4.71400e+00       1.27203e-04       7.73186e+01
 18.400      2.11894e+02       1.74268e+00       4.43900e+00       1.25183e-04       7.61287e+01
 18.500      2.12006e+02       1.45019e+00       4.17168e+00       1.23186e-04       7.49534e+01
 18.600      2.12125e+02       1.17019e+00       3.91360e+00       1.21209e-04       7.37921e+01
 18.700      2.12251e+02       9.00601e-01       3.66634e+00       1.19253e-04       7.26441e+01
 18.800      2.12383e+02       6.39346e-01       3.43147e+00       1.17316e-04       7.15088e+01
 18.900      2.12521e+02       3.84336e-01       3.21055e+00       1.15398e-04       7.03855e+01
 19.000      2.12665e+02       1.33605e-01       3.00505e+00       1.13499e-04       6.92738e+01
 19.100      2.12814e+02      -1.13503e-01       2.81515e+00       1.11619e-04       6.81739e+01
 19.200      2.12967e+02      -3.56767e-01       2.64020e+00       1.09758e-04       6.70861e+01
 19.300      2.13126e+02      -5.95946e-01       2.47953e+00       1.07919e-04       6.60111e+01
 19.400      2.13288e+02      -8.30812e-01       2.33245e+00       1.06103e-04       6.49494e+01
 19.500      2.13454e+02      -1.06112e+00       2.19828e+00       1.04309e-04       6.39013e+01
 19.600      2.13624e+02      -1.28665e+00       2.07637e+00       1.02540e-04       6.28674e+01
 19.700      2.13797e+02      -1.50714e+00       1.96602e+00       1.00796e-04       6.18479e+01
 19.800      2.13973e+02      -1.72236e+00       1.86657e+00       9.90769e-05       6.08433e+01
 19.900      2.14151e+02      -1.93209e+00       1.77734e+00       9.73845e-05       5.98538e+01
 20.000      2.14332e+02      -2.13608e+00       1.69765e+00       9.57189e-05       5.88797e+01
 20.100      2.14514e+02      -2.33410e+00       1.62683e+00       9.40807e-05       5.79213e+01
 20.200      2.14698e+02      -2.52590e+00       1.56420e+00       9.24705e-05       5.69787e+01
 20.300      2.14883e+02      -2.71125e+00       1.50909e+00       9.08886e-05       5.60523e+01
