# Data Source: NASA MERRA (version 2)
# Model Time = 2011-06-17 18:00:00
# Location = [  39.1026,  -84.5123 ]
# Fields = [ Z(km), T(K), U(m/s), V(m/s), R(g/cm3), P(mbar) ]
# Ground Height = 0.165
  0.000      3.04040e+02       2.53651e+00       3.12919e+00       1.15861e-03       1.01100e+03
  0.100      3.03369e+02       2.62194e+00       3.18966e+00       1.14801e-03       9.99534e+02
  0.200      3.02694e+02       2.70731e+00       3.25362e+00       1.13752e-03       9.88199e+02
  0.300      3.01910e+02       2.79100e+00       3.40647e+00       1.12758e-03       9.77027e+02
  0.400      3.00936e+02       2.86873e+00       3.71058e+00       1.11851e-03       9.66043e+02
  0.500      2.99835e+02       2.91756e+00       4.06681e+00       1.11002e-03       9.55205e+02
  0.600      2.98734e+02       2.90939e+00       4.31331e+00       1.10157e-03       9.44453e+02
  0.700      2.97685e+02       2.87581e+00       4.42226e+00       1.09294e-03       9.33764e+02
  0.800      2.96672e+02       2.90551e+00       4.49443e+00       1.08421e-03       9.23152e+02
  0.900      2.95678e+02       3.05157e+00       4.60460e+00       1.07546e-03       9.12628e+02
  1.000      2.94695e+02       3.27629e+00       4.75304e+00       1.06670e-03       9.02190e+02
  1.100      2.93720e+02       3.53262e+00       4.92792e+00       1.05796e-03       8.91837e+02
  1.200      2.92763e+02       3.80369e+00       5.10859e+00       1.04920e-03       8.81570e+02
  1.300      2.91843e+02       4.08657e+00       5.27032e+00       1.04035e-03       8.71389e+02
  1.400      2.90980e+02       4.37842e+00       5.38835e+00       1.03135e-03       8.61297e+02
  1.500      2.90193e+02       4.67640e+00       5.43795e+00       1.02214e-03       8.51295e+02
  1.600      2.89495e+02       4.97647e+00       5.39789e+00       1.01268e-03       8.41383e+02
  1.700      2.88874e+02       5.26757e+00       5.26791e+00       1.00301e-03       8.31564e+02
  1.800      2.88306e+02       5.53606e+00       5.05548e+00       9.93229e-04       8.21837e+02
  1.900      2.87769e+02       5.76828e+00       4.76805e+00       9.83420e-04       8.12204e+02
  2.000      2.87239e+02       5.95060e+00       4.41309e+00       9.73664e-04       8.02665e+02
  2.100      2.86694e+02       6.07098e+00       3.99868e+00       9.64037e-04       7.93221e+02
  2.200      2.86125e+02       6.13318e+00       3.53889e+00       9.54567e-04       7.83870e+02
  2.300      2.85530e+02       6.14979e+00       3.05118e+00       9.45258e-04       7.74611e+02
  2.400      2.84906e+02       6.13348e+00       2.55302e+00       9.36112e-04       7.65441e+02
  2.500      2.84252e+02       6.09694e+00       2.06190e+00       9.27133e-04       7.56358e+02
  2.600      2.83565e+02       6.05282e+00       1.59521e+00       9.18322e-04       7.47360e+02
  2.700      2.82846e+02       6.01221e+00       1.16383e+00       9.09676e-04       7.38445e+02
  2.800      2.82099e+02       5.98345e+00       7.67433e-01       9.01177e-04       7.29614e+02
  2.900      2.81328e+02       5.97461e+00       4.04570e-01       8.92807e-04       7.20863e+02
  3.000      2.80539e+02       5.99377e+00       7.37980e-02       8.84551e-04       7.12194e+02
  3.100      2.79737e+02       6.04899e+00      -2.26329e-01       8.76390e-04       7.03606e+02
  3.200      2.78926e+02       6.14824e+00      -4.97329e-01       8.68309e-04       6.95097e+02
  3.300      2.78111e+02       6.29756e+00      -7.41926e-01       8.60291e-04       6.86667e+02
  3.400      2.77298e+02       6.50144e+00      -9.63829e-01       8.52319e-04       6.78315e+02
  3.500      2.76492e+02       6.76430e+00      -1.16678e+00       8.44376e-04       6.70040e+02
  3.600      2.75698e+02       7.09059e+00      -1.35450e+00       8.36447e-04       6.61841e+02
  3.700      2.74921e+02       7.48475e+00      -1.53075e+00       8.28515e-04       6.53717e+02
  3.800      2.74166e+02       7.95050e+00      -1.69914e+00       8.20565e-04       6.45668e+02
  3.900      2.73441e+02       8.47815e+00      -1.86098e+00       8.12582e-04       6.37694e+02
  4.000      2.72750e+02       9.04585e+00      -2.01551e+00       8.04550e-04       6.29796e+02
  4.100      2.72102e+02       9.63134e+00      -2.16191e+00       7.96454e-04       6.21976e+02
  4.200      2.71502e+02       1.02123e+01      -2.29932e+00       7.88279e-04       6.14236e+02
  4.300      2.70958e+02       1.07666e+01      -2.42693e+00       7.80011e-04       6.06576e+02
  4.400      2.70477e+02       1.12718e+01      -2.54388e+00       7.71637e-04       5.98998e+02
  4.500      2.70058e+02       1.17108e+01      -2.65034e+00       7.63162e-04       5.91502e+02
  4.600      2.69687e+02       1.20800e+01      -2.74909e+00       7.54633e-04       5.84087e+02
  4.700      2.69345e+02       1.23784e+01      -2.84338e+00       7.46106e-04       5.76754e+02
  4.800      2.69012e+02       1.26045e+01      -2.93642e+00       7.37632e-04       5.69500e+02
  4.900      2.68672e+02       1.27574e+01      -3.03147e+00       7.29263e-04       5.62327e+02
  5.000      2.68306e+02       1.28356e+01      -3.13175e+00       7.21046e-04       5.55232e+02
  5.100      2.67894e+02       1.28381e+01      -3.24049e+00       7.13028e-04       5.48215e+02
  5.200      2.67427e+02       1.27697e+01      -3.36004e+00       7.05232e-04       5.41276e+02
  5.300      2.66907e+02       1.26466e+01      -3.49105e+00       6.97644e-04       5.34412e+02
  5.400      2.66342e+02       1.24863e+01      -3.63398e+00       6.90242e-04       5.27622e+02
  5.500      2.65737e+02       1.23065e+01      -3.78929e+00       6.83008e-04       5.20906e+02
  5.600      2.65096e+02       1.21245e+01      -3.95744e+00       6.75923e-04       5.14260e+02
  5.700      2.64427e+02       1.19579e+01      -4.13890e+00       6.68971e-04       5.07685e+02
  5.800      2.63734e+02       1.18244e+01      -4.33413e+00       6.62134e-04       5.01179e+02
  5.900      2.63022e+02       1.17392e+01      -4.54377e+00       6.55395e-04       4.94741e+02
  6.000      2.62296e+02       1.17037e+01      -4.76983e+00       6.48745e-04       4.88369e+02
  6.100      2.61557e+02       1.17130e+01      -5.01486e+00       6.42175e-04       4.82061e+02
  6.200      2.60808e+02       1.17621e+01      -5.28143e+00       6.35677e-04       4.75817e+02
  6.300      2.60051e+02       1.18461e+01      -5.57211e+00       6.29244e-04       4.69634e+02
  6.400      2.59288e+02       1.19601e+01      -5.88946e+00       6.22867e-04       4.63511e+02
  6.500      2.58522e+02       1.20993e+01      -6.23604e+00       6.16540e-04       4.57447e+02
  6.600      2.57755e+02       1.22586e+01      -6.61442e+00       6.10255e-04       4.51441e+02
  6.700      2.56990e+02       1.24336e+01      -7.02723e+00       6.04006e-04       4.45491e+02
  6.800      2.56226e+02       1.26238e+01      -7.47765e+00       5.97794e-04       4.39599e+02
  6.900      2.55465e+02       1.28308e+01      -7.96911e+00       5.91623e-04       4.33769e+02
  7.000      2.54705e+02       1.30561e+01      -8.50508e+00       5.85496e-04       4.28000e+02
  7.100      2.53948e+02       1.33011e+01      -9.08899e+00       5.79417e-04       4.22298e+02
  7.200      2.53194e+02       1.35674e+01      -9.72430e+00       5.73389e-04       4.16662e+02
  7.300      2.52442e+02       1.38565e+01      -1.04145e+01       5.67415e-04       4.11096e+02
  7.400      2.51692e+02       1.41699e+01      -1.11629e+01       5.61498e-04       4.05601e+02
  7.500      2.50945e+02       1.45091e+01      -1.19731e+01       5.55641e-04       4.00179e+02
  7.600      2.50201e+02       1.48750e+01      -1.28447e+01       5.49844e-04       3.94830e+02
  7.700      2.49459e+02       1.52653e+01      -1.37610e+01       5.44099e-04       3.89546e+02
  7.800      2.48719e+02       1.56771e+01      -1.47003e+01       5.38394e-04       3.84318e+02
  7.900      2.47981e+02       1.61073e+01      -1.56413e+01       5.32718e-04       3.79138e+02
  8.000      2.47244e+02       1.65529e+01      -1.65625e+01       5.27061e-04       3.73997e+02
  8.100      2.46508e+02       1.70108e+01      -1.74424e+01       5.21412e-04       3.68887e+02
  8.200      2.45772e+02       1.74781e+01      -1.82597e+01       5.15763e-04       3.63802e+02
  8.300      2.45037e+02       1.79517e+01      -1.89928e+01       5.10103e-04       3.58734e+02
  8.400      2.44302e+02       1.84286e+01      -1.96203e+01       5.04425e-04       3.53676e+02
  8.500      2.43566e+02       1.89058e+01      -2.01209e+01       4.98721e-04       3.48624e+02
  8.600      2.42830e+02       1.93801e+01      -2.04863e+01       4.92997e-04       3.43580e+02
  8.700      2.42095e+02       1.98484e+01      -2.07320e+01       4.87283e-04       3.38570e+02
  8.800      2.41362e+02       2.03073e+01      -2.08761e+01       4.81611e-04       3.33617e+02
  8.900      2.40633e+02       2.07536e+01      -2.09366e+01       4.76013e-04       3.28743e+02
  9.000      2.39909e+02       2.11840e+01      -2.09316e+01       4.70518e-04       3.23970e+02
  9.100      2.39191e+02       2.15953e+01      -2.08792e+01       4.65153e-04       3.19318e+02
  9.200      2.38481e+02       2.19842e+01      -2.07974e+01       4.59944e-04       3.14805e+02
  9.300      2.37780e+02       2.23474e+01      -2.07043e+01       4.54917e-04       3.10449e+02
  9.400      2.37090e+02       2.26817e+01      -2.06180e+01       4.50097e-04       3.06267e+02
  9.500      2.36411e+02       2.29838e+01      -2.05564e+01       4.45505e-04       3.02275e+02
  9.600      2.35745e+02       2.32505e+01      -2.05374e+01       4.41164e-04       2.98486e+02
  9.700      2.35092e+02       2.34813e+01      -2.05694e+01       4.37073e-04       2.94899e+02
  9.800      2.34451e+02       2.36790e+01      -2.06483e+01       4.33205e-04       2.91493e+02
  9.900      2.33821e+02       2.38466e+01      -2.07696e+01       4.29533e-04       2.88245e+02
 10.000      2.33200e+02       2.39873e+01      -2.09286e+01       4.26030e-04       2.85135e+02
 10.100      2.32587e+02       2.41040e+01      -2.11205e+01       4.22671e-04       2.82143e+02
 10.200      2.31980e+02       2.41999e+01      -2.13408e+01       4.19431e-04       2.79250e+02
 10.300      2.31379e+02       2.42779e+01      -2.15847e+01       4.16287e-04       2.76438e+02
 10.400      2.30781e+02       2.43412e+01      -2.18475e+01       4.13214e-04       2.73689e+02
 10.500      2.30186e+02       2.43927e+01      -2.21247e+01       4.10192e-04       2.70987e+02
 10.600      2.29592e+02       2.44357e+01      -2.24115e+01       4.07197e-04       2.68314e+02
 10.700      2.28998e+02       2.44730e+01      -2.27032e+01       4.04210e-04       2.65657e+02
 10.800      2.28402e+02       2.45078e+01      -2.29952e+01       4.01210e-04       2.62999e+02
 10.900      2.27804e+02       2.45431e+01      -2.32828e+01       3.98176e-04       2.60326e+02
 11.000      2.27201e+02       2.45819e+01      -2.35613e+01       3.95091e-04       2.57626e+02
 11.100      2.26593e+02       2.46274e+01      -2.38261e+01       3.91934e-04       2.54883e+02
 11.200      2.25977e+02       2.46826e+01      -2.40724e+01       3.88690e-04       2.52086e+02
 11.300      2.25354e+02       2.47505e+01      -2.42956e+01       3.85340e-04       2.49224e+02
 11.400      2.24722e+02       2.48318e+01      -2.44915e+01       3.81872e-04       2.46289e+02
 11.500      2.24083e+02       2.49227e+01      -2.46563e+01       3.78285e-04       2.43282e+02
 11.600      2.23442e+02       2.50190e+01      -2.47866e+01       3.74574e-04       2.40207e+02
 11.700      2.22800e+02       2.51165e+01      -2.48787e+01       3.70740e-04       2.37064e+02
 11.800      2.22159e+02       2.52110e+01      -2.49292e+01       3.66780e-04       2.33857e+02
 11.900      2.21522e+02       2.52983e+01      -2.49345e+01       3.62693e-04       2.30589e+02
 12.000      2.20893e+02       2.53742e+01      -2.48910e+01       3.58479e-04       2.27262e+02
 12.100      2.20272e+02       2.54345e+01      -2.47953e+01       3.54137e-04       2.23879e+02
 12.200      2.19664e+02       2.54749e+01      -2.46437e+01       3.49666e-04       2.20442e+02
 12.300      2.19070e+02       2.54912e+01      -2.44327e+01       3.45068e-04       2.16955e+02
 12.400      2.18494e+02       2.54793e+01      -2.41588e+01       3.40343e-04       2.13421e+02
 12.500      2.17936e+02       2.54349e+01      -2.38185e+01       3.35493e-04       2.09843e+02
 12.600      2.17402e+02       2.53538e+01      -2.34081e+01       3.30517e-04       2.06224e+02
 12.700      2.16891e+02       2.52318e+01      -2.29241e+01       3.25420e-04       2.02567e+02
 12.800      2.16409e+02       2.50647e+01      -2.23631e+01       3.20202e-04       1.98875e+02
 12.900      2.15954e+02       2.48509e+01      -2.17265e+01       3.14877e-04       1.95157e+02
 13.000      2.15528e+02       2.45933e+01      -2.10236e+01       3.09469e-04       1.91427e+02
 13.100      2.15127e+02       2.42950e+01      -2.02648e+01       3.04006e-04       1.87698e+02
 13.200      2.14752e+02       2.39592e+01      -1.94603e+01       2.98513e-04       1.83985e+02
 13.300      2.14401e+02       2.35891e+01      -1.86205e+01       2.93013e-04       1.80300e+02
 13.400      2.14072e+02       2.31880e+01      -1.77555e+01       2.87529e-04       1.76655e+02
 13.500      2.13765e+02       2.27589e+01      -1.68757e+01       2.82082e-04       1.73059e+02
 13.600      2.13478e+02       2.23052e+01      -1.59913e+01       2.76690e-04       1.69523e+02
 13.700      2.13211e+02       2.18300e+01      -1.51126e+01       2.71372e-04       1.66057e+02
 13.800      2.12961e+02       2.13364e+01      -1.42499e+01       2.66145e-04       1.62667e+02
 13.900      2.12727e+02       2.08278e+01      -1.34134e+01       2.61023e-04       1.59362e+02
 14.000      2.12509e+02       2.03073e+01      -1.26133e+01       2.56021e-04       1.56148e+02
 14.100      2.12306e+02       1.97780e+01      -1.18601e+01       2.51152e-04       1.53031e+02
 14.200      2.12115e+02       1.92433e+01      -1.11638e+01       2.46427e-04       1.50017e+02
 14.300      2.11936e+02       1.87058e+01      -1.05326e+01       2.41854e-04       1.47110e+02
 14.400      2.11769e+02       1.81668e+01      -9.96497e+00       2.37429e-04       1.44304e+02
 14.500      2.11612e+02       1.76267e+01      -9.45721e+00       2.33143e-04       1.41594e+02
 14.600      2.11466e+02       1.70864e+01      -9.00553e+00       2.28990e-04       1.38976e+02
 14.700      2.11330e+02       1.65465e+01      -8.60619e+00       2.24962e-04       1.36444e+02
 14.800      2.11204e+02       1.60076e+01      -8.25541e+00       2.21054e-04       1.33993e+02
 14.900      2.11088e+02       1.54705e+01      -7.94943e+00       2.17258e-04       1.31620e+02
 15.000      2.10980e+02       1.49358e+01      -7.68449e+00       2.13570e-04       1.29319e+02
 15.100      2.10881e+02       1.44041e+01      -7.45682e+00       2.09983e-04       1.27087e+02
 15.200      2.10789e+02       1.38762e+01      -7.26267e+00       2.06492e-04       1.24920e+02
 15.300      2.10706e+02       1.33528e+01      -7.09826e+00       2.03092e-04       1.22815e+02
 15.400      2.10630e+02       1.28344e+01      -6.95984e+00       1.99778e-04       1.20768e+02
 15.500      2.10561e+02       1.23217e+01      -6.84364e+00       1.96546e-04       1.18775e+02
 15.600      2.10498e+02       1.18155e+01      -6.74589e+00       1.93392e-04       1.16834e+02
 15.700      2.10441e+02       1.13164e+01      -6.66284e+00       1.90310e-04       1.14941e+02
 15.800      2.10391e+02       1.08251e+01      -6.59073e+00       1.87298e-04       1.13094e+02
 15.900      2.10345e+02       1.03422e+01      -6.52578e+00       1.84351e-04       1.11291e+02
 16.000      2.10304e+02       9.86838e+00      -6.46423e+00       1.81466e-04       1.09528e+02
 16.100      2.10268e+02       9.40437e+00      -6.40233e+00       1.78639e-04       1.07803e+02
 16.200      2.10236e+02       8.95082e+00      -6.33630e+00       1.75867e-04       1.06114e+02
 16.300      2.10207e+02       8.50841e+00      -6.26239e+00       1.73147e-04       1.04459e+02
 16.400      2.10182e+02       8.07778e+00      -6.17683e+00       1.70477e-04       1.02835e+02
 16.500      2.10160e+02       7.65963e+00      -6.07586e+00       1.67852e-04       1.01242e+02
 16.600      2.10140e+02       7.25460e+00      -5.95572e+00       1.65271e-04       9.96753e+01
 16.700      2.10122e+02       6.86311e+00      -5.81426e+00       1.62731e-04       9.81352e+01
 16.800      2.10108e+02       6.48495e+00      -5.65280e+00       1.60231e-04       9.66204e+01
 16.900      2.10096e+02       6.11983e+00      -5.47314e+00       1.57768e-04       9.51302e+01
 17.000      2.10088e+02       5.76747e+00      -5.27705e+00       1.55342e-04       9.36637e+01
 17.100      2.10083e+02       5.42757e+00      -5.06632e+00       1.52951e-04       9.22201e+01
 17.200      2.10084e+02       5.09987e+00      -4.84273e+00       1.50594e-04       9.07988e+01
 17.300      2.10089e+02       4.78408e+00      -4.60809e+00       1.48269e-04       8.93992e+01
 17.400      2.10099e+02       4.47991e+00      -4.36415e+00       1.45975e-04       8.80204e+01
 17.500      2.10115e+02       4.18707e+00      -4.11272e+00       1.43711e-04       8.66620e+01
 17.600      2.10137e+02       3.90528e+00      -3.85558e+00       1.41476e-04       8.53233e+01
 17.700      2.10166e+02       3.63427e+00      -3.59451e+00       1.39269e-04       8.40037e+01
 17.800      2.10202e+02       3.37374e+00      -3.33130e+00       1.37088e-04       8.27028e+01
 17.900      2.10246e+02       3.12342e+00      -3.06774e+00       1.34934e-04       8.14198e+01
 18.000      2.10297e+02       2.88300e+00      -2.80560e+00       1.32804e-04       8.01543e+01
 18.100      2.10357e+02       2.65223e+00      -2.54668e+00       1.30698e-04       7.89059e+01
 18.200      2.10426e+02       2.43080e+00      -2.29276e+00       1.28616e-04       7.76740e+01
 18.300      2.10504e+02       2.21844e+00      -2.04563e+00       1.26556e-04       7.64582e+01
 18.400      2.10592e+02       2.01485e+00      -1.80706e+00       1.24517e-04       7.52581e+01
 18.500      2.10689e+02       1.81977e+00      -1.57886e+00       1.22500e-04       7.40732e+01
 18.600      2.10798e+02       1.63289e+00      -1.36279e+00       1.20503e-04       7.29031e+01
 18.700      2.10917e+02       1.45395e+00      -1.16065e+00       1.18526e-04       7.17475e+01
 18.800      2.11048e+02       1.28265e+00      -9.74232e-01       1.16568e-04       7.06060e+01
 18.900      2.11191e+02       1.11871e+00      -8.05259e-01       1.14628e-04       6.94782e+01
 19.000      2.11345e+02       9.61692e-01      -6.54213e-01       1.12708e-04       6.83642e+01
 19.100      2.11511e+02       8.11027e-01      -5.20178e-01       1.10808e-04       6.72643e+01
 19.200      2.11686e+02       6.66128e-01      -4.02171e-01       1.08929e-04       6.61788e+01
 19.300      2.11871e+02       5.26412e-01      -2.99208e-01       1.07073e-04       6.51080e+01
 19.400      2.12065e+02       3.91288e-01      -2.10299e-01       1.05240e-04       6.40521e+01
 19.500      2.12266e+02       2.60173e-01      -1.34461e-01       1.03433e-04       6.30115e+01
 19.600      2.12474e+02       1.32481e-01      -7.07095e-02       1.01650e-04       6.19864e+01
 19.700      2.12689e+02       7.62747e-03      -1.80584e-02       9.98938e-05       6.09768e+01
 19.800      2.12908e+02      -1.14971e-01       2.44767e-02       9.81645e-05       5.99831e+01
 19.900      2.13132e+02      -2.35905e-01       5.78825e-02       9.64629e-05       5.90054e+01
 20.000      2.13360e+02      -3.55758e-01       8.31435e-02       9.47893e-05       5.80436e+01
 20.100      2.13591e+02      -4.75114e-01       1.01245e-01       9.31446e-05       5.70982e+01
 20.200      2.13824e+02      -5.94561e-01       1.13172e-01       9.15290e-05       5.61689e+01
 20.300      2.14058e+02      -7.14679e-01       1.19910e-01       8.99429e-05       5.52560e+01
