# Data Source: NASA GEOS5 Near-Real-Time
# Model Time = 2010-05-03 18:00:00
# Location = [  39.7393, -104.9900 ]
# Fields = [ Z(km), T(K), U(m/s), V(m/s), R(g/cm3), P(mbar) ]
# Ground Height = 1.589
  0.000      2.95485e+02       4.58128e+00       8.35847e-01       1.19404e-03       1.01260e+03
  0.100      2.94841e+02       4.53622e+00       8.38523e-01       1.18265e-03       1.00075e+03
  0.200      2.94197e+02       4.49060e+00       8.41532e-01       1.17137e-03       9.89036e+02
  0.300      2.93544e+02       4.45316e+00       8.39643e-01       1.16022e-03       9.77456e+02
  0.400      2.92876e+02       4.43094e+00       8.29596e-01       1.14924e-03       9.66001e+02
  0.500      2.92201e+02       4.41809e+00       8.23328e-01       1.13838e-03       9.54666e+02
  0.600      2.91536e+02       4.40371e+00       8.38522e-01       1.12757e-03       9.43449e+02
  0.700      2.90884e+02       4.39163e+00       8.71836e-01       1.11680e-03       9.32346e+02
  0.800      2.90240e+02       4.39727e+00       9.03251e-01       1.10608e-03       9.21354e+02
  0.900      2.89595e+02       4.42255e+00       9.22650e-01       1.09546e-03       9.10475e+02
  1.000      2.88940e+02       4.44787e+00       9.36017e-01       1.08496e-03       8.99709e+02
  1.100      2.88272e+02       4.45402e+00       9.49636e-01       1.07460e-03       8.89061e+02
  1.200      2.87617e+02       4.42996e+00       9.65774e-01       1.06429e-03       8.78528e+02
  1.300      2.87000e+02       4.36914e+00       9.85859e-01       1.05393e-03       8.68109e+02
  1.400      2.86399e+02       4.29586e+00       1.01234e+00       1.04360e-03       8.57803e+02
  1.500      2.85763e+02       4.25440e+00       1.04830e+00       1.03349e-03       8.47611e+02
  1.600      2.85055e+02       4.26914e+00       1.09323e+00       1.02374e-03       8.37529e+02
  1.700      2.84269e+02       4.32344e+00       1.13928e+00       1.01433e-03       8.27545e+02
  1.800      2.83403e+02       4.39705e+00       1.17777e+00       1.00527e-03       8.17650e+02
  1.900      2.82484e+02       4.48127e+00       1.20045e+00       9.96441e-04       8.07845e+02
  2.000      2.81551e+02       4.57344e+00       1.19932e+00       9.87726e-04       7.98134e+02
  2.100      2.80632e+02       4.67310e+00       1.16938e+00       9.79028e-04       7.88522e+02
  2.200      2.79728e+02       4.78461e+00       1.11250e+00       9.70327e-04       7.78998e+02
  2.300      2.78839e+02       4.91348e+00       1.03132e+00       9.61619e-04       7.69554e+02
  2.400      2.77961e+02       5.07268e+00       9.25828e-01       9.52919e-04       7.60189e+02
  2.500      2.77087e+02       5.28128e+00       7.93786e-01       9.44255e-04       7.50908e+02
  2.600      2.76209e+02       5.55478e+00       6.34342e-01       9.35657e-04       7.41714e+02
  2.700      2.75322e+02       5.88839e+00       4.54348e-01       9.27147e-04       7.32608e+02
  2.800      2.74419e+02       6.27053e+00       2.63206e-01       9.18742e-04       7.23587e+02
  2.900      2.73499e+02       6.69018e+00       5.89372e-02       9.10450e-04       7.14649e+02
  3.000      2.72568e+02       7.13771e+00      -1.89088e-01       9.02238e-04       7.05794e+02
  3.100      2.71637e+02       7.60369e+00      -5.15704e-01       8.94073e-04       6.97019e+02
  3.200      2.70720e+02       8.07644e+00      -9.42152e-01       8.85913e-04       6.88324e+02
  3.300      2.69831e+02       8.54084e+00      -1.46901e+00       8.77704e-04       6.79706e+02
  3.400      2.68986e+02       8.98166e+00      -2.09575e+00       8.69395e-04       6.71165e+02
  3.500      2.68198e+02       9.38745e+00      -2.83947e+00       8.60957e-04       6.62702e+02
  3.600      2.67469e+02       9.75115e+00      -3.73742e+00       8.52387e-04       6.54324e+02
  3.700      2.66805e+02       1.00660e+01      -4.82537e+00       8.43684e-04       6.46036e+02
  3.800      2.66204e+02       1.03267e+01      -6.07412e+00       8.34859e-04       6.37838e+02
  3.900      2.65660e+02       1.05293e+01      -7.38591e+00       8.25932e-04       6.29727e+02
  4.000      2.65165e+02       1.06703e+01      -8.66077e+00       8.16925e-04       6.21699e+02
  4.100      2.64709e+02       1.07512e+01      -9.83551e+00       8.07872e-04       6.13753e+02
  4.200      2.64280e+02       1.07800e+01      -1.08933e+01       7.98821e-04       6.05893e+02
  4.300      2.63864e+02       1.07649e+01      -1.18202e+01       7.89819e-04       5.98123e+02
  4.400      2.63449e+02       1.07173e+01      -1.26130e+01       7.80908e-04       5.90444e+02
  4.500      2.63024e+02       1.06538e+01      -1.32891e+01       7.72115e-04       5.82853e+02
  4.600      2.62578e+02       1.05918e+01      -1.38686e+01       7.63468e-04       5.75349e+02
  4.700      2.62105e+02       1.05492e+01      -1.43700e+01       7.54984e-04       5.67930e+02
  4.800      2.61610e+02       1.05467e+01      -1.48059e+01       7.46640e-04       5.60593e+02
  4.900      2.61104e+02       1.06056e+01      -1.51870e+01       7.38405e-04       5.53337e+02
  5.000      2.60596e+02       1.07463e+01      -1.55233e+01       7.30247e-04       5.46159e+02
  5.100      2.60089e+02       1.09704e+01      -1.58147e+01       7.22160e-04       5.39060e+02
  5.200      2.59576e+02       1.12621e+01      -1.60516e+01       7.14161e-04       5.32037e+02
  5.300      2.59050e+02       1.16055e+01      -1.62240e+01       7.06267e-04       5.25091e+02
  5.400      2.58507e+02       1.19821e+01      -1.63275e+01       6.98490e-04       5.18221e+02
  5.500      2.57945e+02       1.23655e+01      -1.63809e+01       6.90834e-04       5.11427e+02
  5.600      2.57363e+02       1.27268e+01      -1.64091e+01       6.83300e-04       5.04707e+02
  5.700      2.56760e+02       1.30375e+01      -1.64367e+01       6.75888e-04       4.98062e+02
  5.800      2.56135e+02       1.32769e+01      -1.64802e+01       6.68596e-04       4.91491e+02
  5.900      2.55490e+02       1.34386e+01      -1.65410e+01       6.61421e-04       4.84992e+02
  6.000      2.54826e+02       1.35174e+01      -1.66195e+01       6.54356e-04       4.78563e+02
  6.100      2.54142e+02       1.35084e+01      -1.67158e+01       6.47396e-04       4.72202e+02
  6.200      2.53441e+02       1.34195e+01      -1.68315e+01       6.40535e-04       4.65909e+02
  6.300      2.52723e+02       1.32728e+01      -1.69697e+01       6.33768e-04       4.59682e+02
  6.400      2.51992e+02       1.30914e+01      -1.71338e+01       6.27087e-04       4.53519e+02
  6.500      2.51247e+02       1.28980e+01      -1.73268e+01       6.20487e-04       4.47420e+02
  6.600      2.50491e+02       1.27070e+01      -1.75514e+01       6.13965e-04       4.41385e+02
  6.700      2.49721e+02       1.25226e+01      -1.78092e+01       6.07523e-04       4.35412e+02
  6.800      2.48938e+02       1.23482e+01      -1.81018e+01       6.01163e-04       4.29503e+02
  6.900      2.48140e+02       1.21874e+01      -1.84309e+01       5.94888e-04       4.23656e+02
  7.000      2.47327e+02       1.20480e+01      -1.87972e+01       5.88693e-04       4.17872e+02
  7.100      2.46504e+02       1.19470e+01      -1.91998e+01       5.82572e-04       4.12149e+02
  7.200      2.45672e+02       1.19021e+01      -1.96378e+01       5.76512e-04       4.06486e+02
  7.300      2.44836e+02       1.19313e+01      -2.01100e+01       5.70505e-04       4.00882e+02
  7.400      2.43999e+02       1.20494e+01      -2.06151e+01       5.64542e-04       3.95336e+02
  7.500      2.43162e+02       1.22516e+01      -2.11498e+01       5.58619e-04       3.89846e+02
  7.600      2.42325e+02       1.25252e+01      -2.17103e+01       5.52737e-04       3.84414e+02
  7.700      2.41489e+02       1.28572e+01      -2.22926e+01       5.46895e-04       3.79038e+02
  7.800      2.40655e+02       1.32351e+01      -2.28927e+01       5.41090e-04       3.73719e+02
  7.900      2.39822e+02       1.36463e+01      -2.35087e+01       5.35324e-04       3.68457e+02
  8.000      2.38992e+02       1.40795e+01      -2.41424e+01       5.29593e-04       3.63251e+02
  8.100      2.38166e+02       1.45233e+01      -2.47963e+01       5.23895e-04       3.58101e+02
  8.200      2.37346e+02       1.49662e+01      -2.54727e+01       5.18227e-04       3.53007e+02
  8.300      2.36532e+02       1.53971e+01      -2.61739e+01       5.12588e-04       3.47970e+02
  8.400      2.35729e+02       1.58143e+01      -2.68966e+01       5.06972e-04       3.42988e+02
  8.500      2.34942e+02       1.62282e+01      -2.76309e+01       5.01366e-04       3.38062e+02
  8.600      2.34176e+02       1.66500e+01      -2.83665e+01       4.95759e-04       3.33192e+02
  8.700      2.33437e+02       1.70907e+01      -2.90930e+01       4.90141e-04       3.28377e+02
  8.800      2.32732e+02       1.75617e+01      -2.97999e+01       4.84500e-04       3.23618e+02
  8.900      2.32061e+02       1.80656e+01      -3.04842e+01       4.78837e-04       3.18913e+02
  9.000      2.31416e+02       1.85912e+01      -3.11553e+01       4.73172e-04       3.14263e+02
  9.100      2.30786e+02       1.91257e+01      -3.18237e+01       4.67524e-04       3.09668e+02
  9.200      2.30164e+02       1.96563e+01      -3.25000e+01       4.61915e-04       3.05127e+02
  9.300      2.29539e+02       2.01703e+01      -3.31950e+01       4.56362e-04       3.00641e+02
  9.400      2.28904e+02       2.06553e+01      -3.39148e+01       4.50882e-04       2.96209e+02
  9.500      2.28255e+02       2.11014e+01      -3.46398e+01       4.45480e-04       2.91831e+02
  9.600      2.27592e+02       2.14992e+01      -3.53399e+01       4.40155e-04       2.87505e+02
  9.700      2.26914e+02       2.18397e+01      -3.59853e+01       4.34906e-04       2.83230e+02
  9.800      2.26221e+02       2.21137e+01      -3.65461e+01       4.29733e-04       2.79006e+02
  9.900      2.25511e+02       2.23121e+01      -3.69923e+01       4.24635e-04       2.74831e+02
 10.000      2.24787e+02       2.24245e+01      -3.73002e+01       4.19609e-04       2.70706e+02
 10.100      2.24055e+02       2.24360e+01      -3.74675e+01       4.14641e-04       2.66630e+02
 10.200      2.23324e+02       2.23309e+01      -3.74967e+01       4.09714e-04       2.62603e+02
 10.300      2.22604e+02       2.20934e+01      -3.73903e+01       4.04813e-04       2.58624e+02
 10.400      2.21903e+02       2.17076e+01      -3.71510e+01       3.99922e-04       2.54695e+02
 10.500      2.21231e+02       2.11577e+01      -3.67811e+01       3.95026e-04       2.50815e+02
 10.600      2.20593e+02       2.04348e+01      -3.62825e+01       3.90116e-04       2.46984e+02
 10.700      2.19980e+02       1.95822e+01      -3.56508e+01       3.85211e-04       2.43200e+02
 10.800      2.19373e+02       1.86673e+01      -3.48787e+01       3.80341e-04       2.39463e+02
 10.900      2.18754e+02       1.77578e+01      -3.39592e+01       3.75539e-04       2.35772e+02
 11.000      2.18103e+02       1.69213e+01      -3.28849e+01       3.70832e-04       2.32125e+02
 11.100      2.17402e+02       1.62255e+01      -3.16486e+01       3.66251e-04       2.28520e+02
 11.200      2.16633e+02       1.57380e+01      -3.02432e+01       3.61821e-04       2.24958e+02
 11.300      2.15789e+02       1.55098e+01      -2.86747e+01       3.57551e-04       2.21437e+02
 11.400      2.14909e+02       1.55275e+01      -2.70001e+01       3.53376e-04       2.17958e+02
 11.500      2.14042e+02       1.57626e+01      -2.52887e+01       3.49214e-04       2.14522e+02
 11.600      2.13238e+02       1.61862e+01      -2.36099e+01       3.44989e-04       2.11131e+02
 11.700      2.12548e+02       1.67694e+01      -2.20330e+01       3.40626e-04       2.07786e+02
 11.800      2.12020e+02       1.74837e+01      -2.06275e+01       3.36051e-04       2.04487e+02
 11.900      2.11706e+02       1.83002e+01      -1.94626e+01       3.31199e-04       2.01235e+02
 12.000      2.11651e+02       1.91899e+01      -1.86027e+01       3.26011e-04       1.98031e+02
 12.100      2.11849e+02       2.01198e+01      -1.80430e+01       3.20518e-04       1.94877e+02
 12.200      2.12258e+02       2.10541e+01      -1.77273e+01       3.14806e-04       1.91774e+02
 12.300      2.12834e+02       2.19569e+01      -1.75983e+01       3.08959e-04       1.88722e+02
 12.400      2.13532e+02       2.27924e+01      -1.75987e+01       3.03057e-04       1.85724e+02
 12.500      2.14308e+02       2.35247e+01      -1.76713e+01       2.97173e-04       1.82780e+02
 12.600      2.15119e+02       2.41178e+01      -1.77588e+01       2.91375e-04       1.79892e+02
 12.700      2.15920e+02       2.45359e+01      -1.78038e+01       2.85724e-04       1.77060e+02
 12.800      2.16667e+02       2.47432e+01      -1.77494e+01       2.80276e-04       1.74285e+02
 12.900      2.17332e+02       2.47272e+01      -1.75609e+01       2.75059e-04       1.71566e+02
 13.000      2.17919e+02       2.45183e+01      -1.72467e+01       2.70059e-04       1.68902e+02
 13.100      2.18433e+02       2.41521e+01      -1.68198e+01       2.65257e-04       1.66290e+02
 13.200      2.18879e+02       2.36640e+01      -1.62931e+01       2.60636e-04       1.63727e+02
 13.300      2.19265e+02       2.30895e+01      -1.56796e+01       2.56179e-04       1.61211e+02
 13.400      2.19596e+02       2.24640e+01      -1.49924e+01       2.51873e-04       1.58741e+02
 13.500      2.19879e+02       2.18231e+01      -1.42443e+01       2.47703e-04       1.56314e+02
 13.600      2.20118e+02       2.12021e+01      -1.34485e+01       2.43657e-04       1.53928e+02
 13.700      2.20321e+02       2.06366e+01      -1.26180e+01       2.39721e-04       1.51581e+02
 13.800      2.20493e+02       2.01617e+01      -1.17656e+01       2.35884e-04       1.49271e+02
 13.900      2.20639e+02       1.97948e+01      -1.09021e+01       2.32139e-04       1.46998e+02
 14.000      2.20757e+02       1.95247e+01      -1.00347e+01       2.28480e-04       1.44759e+02
 14.100      2.20850e+02       1.93372e+01      -9.17019e+00       2.24905e-04       1.42554e+02
 14.200      2.20916e+02       1.92185e+01      -8.31533e+00       2.21410e-04       1.40380e+02
 14.300      2.20956e+02       1.91545e+01      -7.47695e+00       2.17992e-04       1.38238e+02
 14.400      2.20970e+02       1.91312e+01      -6.66187e+00       2.14648e-04       1.36126e+02
 14.500      2.20957e+02       1.91346e+01      -5.87688e+00       2.11375e-04       1.34043e+02
 14.600      2.20919e+02       1.91508e+01      -5.12881e+00       2.08171e-04       1.31988e+02
 14.700      2.20855e+02       1.91657e+01      -4.42446e+00       2.05032e-04       1.29960e+02
 14.800      2.20766e+02       1.91654e+01      -3.77062e+00       2.01956e-04       1.27959e+02
 14.900      2.20650e+02       1.91358e+01      -3.17413e+00       1.98941e-04       1.25982e+02
 15.000      2.20509e+02       1.90635e+01      -2.64152e+00       1.95984e-04       1.24030e+02
 15.100      2.20344e+02       1.89435e+01      -2.17326e+00       1.93083e-04       1.22103e+02
 15.200      2.20157e+02       1.87802e+01      -1.76374e+00       1.90236e-04       1.20201e+02
 15.300      2.19952e+02       1.85780e+01      -1.40704e+00       1.87442e-04       1.18326e+02
 15.400      2.19731e+02       1.83416e+01      -1.09728e+00       1.84699e-04       1.16477e+02
 15.500      2.19497e+02       1.80754e+01      -8.28557e-01       1.82005e-04       1.14656e+02
 15.600      2.19253e+02       1.77842e+01      -5.94981e-01       1.79359e-04       1.12862e+02
 15.700      2.19001e+02       1.74724e+01      -3.90658e-01       1.76758e-04       1.11098e+02
 15.800      2.18745e+02       1.71446e+01      -2.09687e-01       1.74201e-04       1.09363e+02
 15.900      2.18486e+02       1.68053e+01      -4.61779e-02       1.71688e-04       1.07658e+02
 16.000      2.18229e+02       1.64592e+01       1.05769e-01       1.69216e-04       1.05982e+02
 16.100      2.17975e+02       1.61108e+01       2.52048e-01       1.66784e-04       1.04338e+02
 16.200      2.17727e+02       1.57647e+01       3.98553e-01       1.64390e-04       1.02723e+02
 16.300      2.17488e+02       1.54254e+01       5.51178e-01       1.62034e-04       1.01140e+02
 16.400      2.17262e+02       1.50975e+01       7.15799e-01       1.59714e-04       9.95881e+01
 16.500      2.17049e+02       1.47839e+01       8.95888e-01       1.57428e-04       9.80669e+01
 16.600      2.16849e+02       1.44843e+01       1.09047e+00       1.55176e-04       9.65751e+01
 16.700      2.16663e+02       1.41981e+01       1.29811e+00       1.52956e-04       9.51115e+01
 16.800      2.16490e+02       1.39248e+01       1.51733e+00       1.50766e-04       9.36749e+01
 16.900      2.16328e+02       1.36636e+01       1.74670e+00       1.48606e-04       9.22638e+01
 17.000      2.16179e+02       1.34142e+01       1.98476e+00       1.46473e-04       9.08772e+01
 17.100      2.16042e+02       1.31758e+01       2.23006e+00       1.44368e-04       8.95138e+01
 17.200      2.15916e+02       1.29479e+01       2.48114e+00       1.42288e-04       8.81727e+01
 17.300      2.15800e+02       1.27300e+01       2.73656e+00       1.40233e-04       8.68528e+01
 17.400      2.15695e+02       1.25213e+01       2.99487e+00       1.38202e-04       8.55532e+01
 17.500      2.15601e+02       1.23213e+01       3.25461e+00       1.36193e-04       8.42727e+01
 17.600      2.15516e+02       1.21295e+01       3.51433e+00       1.34206e-04       8.30106e+01
 17.700      2.15440e+02       1.19453e+01       3.77259e+00       1.32240e-04       8.17660e+01
 17.800      2.15374e+02       1.17680e+01       4.02792e+00       1.30295e-04       8.05381e+01
 17.900      2.15316e+02       1.15971e+01       4.27888e+00       1.28368e-04       7.93261e+01
 18.000      2.15266e+02       1.14319e+01       4.52401e+00       1.26461e-04       7.81292e+01
 18.100      2.15225e+02       1.12720e+01       4.76187e+00       1.24571e-04       7.69467e+01
 18.200      2.15190e+02       1.11167e+01       4.99100e+00       1.22698e-04       7.57780e+01
 18.300      2.15164e+02       1.09654e+01       5.20995e+00       1.20842e-04       7.46224e+01
 18.400      2.15143e+02       1.08176e+01       5.41727e+00       1.19002e-04       7.34793e+01
 18.500      2.15130e+02       1.06726e+01       5.61151e+00       1.17178e-04       7.23482e+01
 18.600      2.15122e+02       1.05299e+01       5.79122e+00       1.15368e-04       7.12284e+01
 18.700      2.15120e+02       1.03888e+01       5.95494e+00       1.13573e-04       7.01195e+01
 18.800      2.15123e+02       1.02490e+01       6.10147e+00       1.11793e-04       6.90212e+01
 18.900      2.15132e+02       1.01105e+01       6.23093e+00       1.10027e-04       6.79337e+01
 19.000      2.15145e+02       9.97374e+00       6.34394e+00       1.08278e-04       6.68577e+01
 19.100      2.15163e+02       9.83903e+00       6.44109e+00       1.06545e-04       6.57939e+01
 19.200      2.15187e+02       9.70674e+00       6.52298e+00       1.04832e-04       6.47425e+01
 19.300      2.15214e+02       9.57723e+00       6.59021e+00       1.03137e-04       6.37042e+01
 19.400      2.15246e+02       9.45086e+00       6.64338e+00       1.01463e-04       6.26793e+01
 19.500      2.15283e+02       9.32798e+00       6.68309e+00       9.98092e-05       6.16684e+01
 19.600      2.15324e+02       9.20896e+00       6.70993e+00       9.81775e-05       6.06717e+01
 19.700      2.15369e+02       9.09415e+00       6.72452e+00       9.65681e-05       5.96896e+01
 19.800      2.15418e+02       8.98392e+00       6.72744e+00       9.49818e-05       5.87224e+01
 19.900      2.15470e+02       8.87861e+00       6.71931e+00       9.34191e-05       5.77703e+01
 20.000      2.15527e+02       8.77858e+00       6.70071e+00       9.18805e-05       5.68337e+01
 20.100      2.15587e+02       8.68421e+00       6.67225e+00       9.03665e-05       5.59128e+01
 20.200      2.15650e+02       8.59583e+00       6.63452e+00       8.88776e-05       5.50077e+01
 20.300      2.15717e+02       8.51382e+00       6.58814e+00       8.74141e-05       5.41187e+01
