# Data Source: NASA GEOS5 Near-Real-Time
# Model Time = 2010-06-12 18:00:00
# Location = [  39.7393, -104.9900 ]
# Fields = [ Z(km), T(K), U(m/s), V(m/s), R(g/cm3), P(mbar) ]
# Ground Height = 1.589
  0.000      2.94044e+02      -2.71050e+00      -2.44659e+00       1.20882e-03       1.02013e+03
  0.100      2.93391e+02      -2.70623e+00      -2.47443e+00       1.19729e-03       1.00816e+03
  0.200      2.92742e+02      -2.70981e+00      -2.51058e+00       1.18587e-03       9.96329e+02
  0.300      2.92092e+02      -2.70983e+00      -2.54297e+00       1.17456e-03       9.84636e+02
  0.400      2.91434e+02      -2.69494e+00      -2.55956e+00       1.16339e-03       9.73074e+02
  0.500      2.90770e+02      -2.66110e+00      -2.55504e+00       1.15234e-03       9.61638e+02
  0.600      2.90125e+02      -2.62226e+00      -2.54066e+00       1.14130e-03       9.50317e+02
  0.700      2.89512e+02      -2.59156e+00      -2.53049e+00       1.13023e-03       9.39106e+02
  0.800      2.88900e+02      -2.56692e+00      -2.54006e+00       1.11924e-03       9.28009e+02
  0.900      2.88253e+02      -2.54306e+00      -2.58025e+00       1.10848e-03       9.17033e+02
  1.000      2.87585e+02      -2.52375e+00      -2.61412e+00       1.09790e-03       9.06173e+02
  1.100      2.86945e+02      -2.51757e+00      -2.58035e+00       1.08730e-03       8.95422e+02
  1.200      2.86349e+02      -2.52739e+00      -2.47647e+00       1.07661e-03       8.84778e+02
  1.300      2.85783e+02      -2.54910e+00      -2.37160e+00       1.06590e-03       8.74246e+02
  1.400      2.85227e+02      -2.57687e+00      -2.31865e+00       1.05526e-03       8.63833e+02
  1.500      2.84659e+02      -2.60063e+00      -2.30448e+00       1.04476e-03       8.53535e+02
  1.600      2.84056e+02      -2.60734e+00      -2.30553e+00       1.03448e-03       8.43349e+02
  1.700      2.83397e+02      -2.55844e+00      -2.33367e+00       1.02449e-03       8.33270e+02
  1.800      2.82659e+02      -2.39855e+00      -2.42432e+00       1.01487e-03       8.23291e+02
  1.900      2.81837e+02      -2.13281e+00      -2.60003e+00       1.00561e-03       8.13407e+02
  2.000      2.80967e+02      -1.91332e+00      -2.85111e+00       9.96573e-04       8.03613e+02
  2.100      2.80090e+02      -1.90535e+00      -3.15793e+00       9.87618e-04       7.93906e+02
  2.200      2.79253e+02      -2.15920e+00      -3.43106e+00       9.78578e-04       7.84287e+02
  2.300      2.78505e+02      -2.64322e+00      -3.53127e+00       9.69292e-04       7.74763e+02
  2.400      2.77882e+02      -3.30607e+00      -3.36062e+00       9.59644e-04       7.65337e+02
  2.500      2.77378e+02      -4.02995e+00      -2.97823e+00       9.49676e-04       7.56014e+02
  2.600      2.76974e+02      -4.68302e+00      -2.47896e+00       9.39463e-04       7.46794e+02
  2.700      2.76658e+02      -5.20581e+00      -1.91918e+00       9.29059e-04       7.37680e+02
  2.800      2.76425e+02      -5.64650e+00      -1.29805e+00       9.18483e-04       7.28670e+02
  2.900      2.76272e+02      -6.05898e+00      -6.10436e-01       9.07759e-04       7.19761e+02
  3.000      2.76168e+02      -6.45029e+00       1.43176e-01       8.96991e-04       7.10956e+02
  3.100      2.76065e+02      -6.79037e+00       9.57862e-01       8.86344e-04       7.02256e+02
  3.200      2.75918e+02      -7.04965e+00       1.83201e+00       8.75964e-04       6.93663e+02
  3.300      2.75723e+02      -7.21207e+00       2.79497e+00       8.65859e-04       6.85176e+02
  3.400      2.75494e+02      -7.26875e+00       3.89257e+00       8.55970e-04       6.76788e+02
  3.500      2.75245e+02      -7.21221e+00       5.16514e+00       8.46246e-04       6.68495e+02
  3.600      2.74972e+02      -7.04525e+00       6.60926e+00       8.36695e-04       6.60293e+02
  3.700      2.74660e+02      -6.77545e+00       8.20111e+00       8.27350e-04       6.52180e+02
  3.800      2.74300e+02      -6.40944e+00       9.91407e+00       8.18240e-04       6.44152e+02
  3.900      2.73894e+02      -5.94437e+00       1.16965e+01       8.09351e-04       6.36211e+02
  4.000      2.73453e+02      -5.37227e+00       1.34832e+01       8.00647e-04       6.28357e+02
  4.100      2.72990e+02      -4.68730e+00       1.52111e+01       7.92095e-04       6.20590e+02
  4.200      2.72506e+02      -3.92037e+00       1.68581e+01       7.83678e-04       6.12910e+02
  4.300      2.72002e+02      -3.13309e+00       1.84356e+01       7.75397e-04       6.05311e+02
  4.400      2.71475e+02      -2.38767e+00       1.99565e+01       7.67250e-04       5.97790e+02
  4.500      2.70926e+02      -1.71736e+00       2.14260e+01       7.59228e-04       5.90343e+02
  4.600      2.70363e+02      -1.10575e+00       2.28375e+01       7.51308e-04       5.82972e+02
  4.700      2.69795e+02      -5.31506e-01       2.41830e+01       7.43469e-04       5.75677e+02
  4.800      2.69226e+02       2.29920e-02       2.54528e+01       7.35696e-04       5.68457e+02
  4.900      2.68644e+02       5.55773e-01       2.66287e+01       7.28025e-04       5.61313e+02
  5.000      2.68028e+02       1.05840e+00       2.76895e+01       7.20506e-04       5.54242e+02
  5.100      2.67361e+02       1.52269e+00       2.86142e+01       7.13184e-04       5.47244e+02
  5.200      2.66641e+02       1.95071e+00       2.93970e+01       7.06058e-04       5.40318e+02
  5.300      2.65892e+02       2.35799e+00       3.00514e+01       6.99062e-04       5.33461e+02
  5.400      2.65136e+02       2.76101e+00       3.05923e+01       6.92132e-04       5.26671e+02
  5.500      2.64397e+02       3.17358e+00       3.10355e+01       6.85206e-04       5.19948e+02
  5.600      2.63684e+02       3.58672e+00       3.14050e+01       6.78264e-04       5.13291e+02
  5.700      2.62996e+02       3.97975e+00       3.17286e+01       6.71305e-04       5.06700e+02
  5.800      2.62336e+02       4.33191e+00       3.20346e+01       6.64329e-04       5.00176e+02
  5.900      2.61702e+02       4.62366e+00       3.23462e+01       6.57342e-04       4.93720e+02
  6.000      2.61085e+02       4.84083e+00       3.26662e+01       6.50369e-04       4.87331e+02
  6.100      2.60473e+02       4.97068e+00       3.29920e+01       6.43441e-04       4.81009e+02
  6.200      2.59853e+02       5.00046e+00       3.33208e+01       6.36589e-04       4.74754e+02
  6.300      2.59216e+02       4.92590e+00       3.36455e+01       6.29835e-04       4.68565e+02
  6.400      2.58560e+02       4.77277e+00       3.39433e+01       6.23180e-04       4.62442e+02
  6.500      2.57887e+02       4.57349e+00       3.41880e+01       6.16621e-04       4.56382e+02
  6.600      2.57196e+02       4.36050e+00       3.43532e+01       6.10154e-04       4.50386e+02
  6.700      2.56489e+02       4.16635e+00       3.44212e+01       6.03773e-04       4.44451e+02
  6.800      2.55770e+02       4.02413e+00       3.44160e+01       5.97469e-04       4.38578e+02
  6.900      2.55044e+02       3.96709e+00       3.43740e+01       5.91231e-04       4.32767e+02
  7.000      2.54315e+02       4.02851e+00       3.43317e+01       5.85046e-04       4.27016e+02
  7.100      2.53589e+02       4.23795e+00       3.43243e+01       5.78905e-04       4.21327e+02
  7.200      2.52866e+02       4.57897e+00       3.43704e+01       5.72804e-04       4.15698e+02
  7.300      2.52147e+02       5.00383e+00       3.44772e+01       5.66742e-04       4.10129e+02
  7.400      2.51432e+02       5.46420e+00       3.46518e+01       5.60718e-04       4.04620e+02
  7.500      2.50721e+02       5.91178e+00       3.49011e+01       5.54734e-04       3.99169e+02
  7.600      2.50013e+02       6.31716e+00       3.52247e+01       5.48789e-04       3.93776e+02
  7.700      2.49306e+02       6.69906e+00       3.56030e+01       5.42887e-04       3.88440e+02
  7.800      2.48598e+02       7.08377e+00       3.60133e+01       5.37035e-04       3.83163e+02
  7.900      2.47888e+02       7.49755e+00       3.64332e+01       5.31236e-04       3.77942e+02
  8.000      2.47172e+02       7.96635e+00       3.68402e+01       5.25495e-04       3.72777e+02
  8.100      2.46450e+02       8.50507e+00       3.72204e+01       5.19811e-04       3.67669e+02
  8.200      2.45727e+02       9.11546e+00       3.75696e+01       5.14178e-04       3.62616e+02
  8.300      2.45003e+02       9.79852e+00       3.78843e+01       5.08589e-04       3.57619e+02
  8.400      2.44283e+02       1.05552e+01       3.81609e+01       5.03039e-04       3.52676e+02
  8.500      2.43568e+02       1.13860e+01       3.83962e+01       4.97522e-04       3.47788e+02
  8.600      2.42861e+02       1.22744e+01       3.85917e+01       4.92036e-04       3.42954e+02
  8.700      2.42158e+02       1.31852e+01       3.87547e+01       4.86584e-04       3.38173e+02
  8.800      2.41458e+02       1.40822e+01       3.88927e+01       4.81172e-04       3.33445e+02
  8.900      2.40760e+02       1.49290e+01       3.90133e+01       4.75802e-04       3.28770e+02
  9.000      2.40061e+02       1.56894e+01       3.91240e+01       4.70477e-04       3.24147e+02
  9.100      2.39360e+02       1.63465e+01       3.92320e+01       4.65200e-04       3.19576e+02
  9.200      2.38659e+02       1.69279e+01       3.93431e+01       4.59969e-04       3.15056e+02
  9.300      2.37957e+02       1.74678e+01       3.94631e+01       4.54781e-04       3.10587e+02
  9.400      2.37257e+02       1.80002e+01       3.95980e+01       4.49635e-04       3.06169e+02
  9.500      2.36559e+02       1.85591e+01       3.97534e+01       4.44527e-04       3.01800e+02
  9.600      2.35864e+02       1.91760e+01       3.99342e+01       4.39457e-04       2.97481e+02
  9.700      2.35170e+02       1.98413e+01       4.01289e+01       4.34428e-04       2.93211e+02
  9.800      2.34474e+02       2.05127e+01       4.03128e+01       4.29445e-04       2.88991e+02
  9.900      2.33772e+02       2.11466e+01       4.04611e+01       4.24515e-04       2.84818e+02
 10.000      2.33061e+02       2.16997e+01       4.05488e+01       4.19644e-04       2.80694e+02
 10.100      2.32338e+02       2.21286e+01       4.05511e+01       4.14837e-04       2.76617e+02
 10.200      2.31598e+02       2.23919e+01       4.04452e+01       4.10099e-04       2.72588e+02
 10.300      2.30844e+02       2.24803e+01       4.02440e+01       4.05428e-04       2.68605e+02
 10.400      2.30081e+02       2.24086e+01       3.99872e+01       4.00811e-04       2.64669e+02
 10.500      2.29314e+02       2.21924e+01       3.97154e+01       3.96240e-04       2.60778e+02
 10.600      2.28547e+02       2.18472e+01       3.94691e+01       3.91705e-04       2.56930e+02
 10.700      2.27786e+02       2.13886e+01       3.92888e+01       3.87195e-04       2.53127e+02
 10.800      2.27036e+02       2.08322e+01       3.92151e+01       3.82702e-04       2.49366e+02
 10.900      2.26304e+02       2.02006e+01       3.92733e+01       3.78215e-04       2.45648e+02
 11.000      2.25602e+02       1.95336e+01       3.94526e+01       3.73718e-04       2.41974e+02
 11.100      2.24939e+02       1.88736e+01       3.97366e+01       3.69196e-04       2.38344e+02
 11.200      2.24329e+02       1.82629e+01       4.01090e+01       3.64634e-04       2.34760e+02
 11.300      2.23782e+02       1.77439e+01       4.05533e+01       3.60018e-04       2.31223e+02
 11.400      2.23311e+02       1.73591e+01       4.10532e+01       3.55333e-04       2.27734e+02
 11.500      2.22926e+02       1.71505e+01       4.15923e+01       3.50568e-04       2.24293e+02
 11.600      2.22630e+02       1.71391e+01       4.21459e+01       3.45725e-04       2.20900e+02
 11.700      2.22400e+02       1.72988e+01       4.26710e+01       3.40842e-04       2.17556e+02
 11.800      2.22213e+02       1.75974e+01       4.31224e+01       3.35958e-04       2.14258e+02
 11.900      2.22044e+02       1.80025e+01       4.34546e+01       3.31111e-04       2.11006e+02
 12.000      2.21869e+02       1.84818e+01       4.36224e+01       3.26336e-04       2.07799e+02
 12.100      2.21663e+02       1.90031e+01       4.35805e+01       3.21667e-04       2.04636e+02
 12.200      2.21403e+02       1.95342e+01       4.32835e+01       3.17136e-04       2.01516e+02
 12.300      2.21064e+02       2.00429e+01       4.26886e+01       3.12770e-04       1.98438e+02
 12.400      2.20648e+02       2.05034e+01       4.18066e+01       3.08566e-04       1.95402e+02
 12.500      2.20178e+02       2.08954e+01       4.07008e+01       3.04485e-04       1.92407e+02
 12.600      2.19678e+02       2.11990e+01       3.94368e+01       3.00492e-04       1.89453e+02
 12.700      2.19173e+02       2.13943e+01       3.80801e+01       2.96552e-04       1.86539e+02
 12.800      2.18688e+02       2.14615e+01       3.66963e+01       2.92632e-04       1.83666e+02
 12.900      2.18246e+02       2.13805e+01       3.53509e+01       2.88699e-04       1.80831e+02
 13.000      2.17872e+02       2.11315e+01       3.41093e+01       2.84724e-04       1.78036e+02
 13.100      2.17591e+02       2.06946e+01       3.30372e+01       2.80677e-04       1.75279e+02
 13.200      2.17422e+02       2.00567e+01       3.21886e+01       2.76538e-04       1.72560e+02
 13.300      2.17358e+02       1.92415e+01       3.15541e+01       2.72325e-04       1.69881e+02
 13.400      2.17381e+02       1.82855e+01       3.11034e+01       2.68064e-04       1.67241e+02
 13.500      2.17475e+02       1.72250e+01       3.08059e+01       2.63783e-04       1.64641e+02
 13.600      2.17624e+02       1.60963e+01       3.06311e+01       2.59506e-04       1.62082e+02
 13.700      2.17809e+02       1.49358e+01       3.05485e+01       2.55258e-04       1.59565e+02
 13.800      2.18014e+02       1.37799e+01       3.05276e+01       2.51061e-04       1.57089e+02
 13.900      2.18224e+02       1.26648e+01       3.05379e+01       2.46935e-04       1.54656e+02
 14.000      2.18419e+02       1.16270e+01       3.05489e+01       2.42900e-04       1.52265e+02
 14.100      2.18585e+02       1.07028e+01       3.05300e+01       2.38974e-04       1.49918e+02
 14.200      2.18707e+02       9.91938e+00       3.04570e+01       2.35169e-04       1.47613e+02
 14.300      2.18783e+02       9.27067e+00       3.03279e+01       2.31480e-04       1.45348e+02
 14.400      2.18815e+02       8.74324e+00       3.01458e+01       2.27899e-04       1.43121e+02
 14.500      2.18803e+02       8.32363e+00       2.99140e+01       2.24421e-04       1.40929e+02
 14.600      2.18749e+02       7.99837e+00       2.96354e+01       2.21037e-04       1.38769e+02
 14.700      2.18652e+02       7.75401e+00       2.93131e+01       2.17742e-04       1.36640e+02
 14.800      2.18515e+02       7.57708e+00       2.89504e+01       2.14529e-04       1.34539e+02
 14.900      2.18338e+02       7.45413e+00       2.85502e+01       2.11392e-04       1.32465e+02
 15.000      2.18121e+02       7.37170e+00       2.81158e+01       2.08327e-04       1.30414e+02
 15.100      2.17866e+02       7.31631e+00       2.76502e+01       2.05327e-04       1.28386e+02
 15.200      2.17574e+02       7.27452e+00       2.71565e+01       2.02388e-04       1.26379e+02
 15.300      2.17246e+02       7.23292e+00       2.66379e+01       1.99504e-04       1.24390e+02
 15.400      2.16884e+02       7.18281e+00       2.60972e+01       1.96673e-04       1.22421e+02
 15.500      2.16493e+02       7.12328e+00       2.55373e+01       1.93892e-04       1.20472e+02
 15.600      2.16078e+02       7.05413e+00       2.49607e+01       1.91157e-04       1.18545e+02
 15.700      2.15644e+02       6.97519e+00       2.43702e+01       1.88466e-04       1.16642e+02
 15.800      2.15197e+02       6.88627e+00       2.37683e+01       1.85818e-04       1.14764e+02
 15.900      2.14742e+02       6.78719e+00       2.31579e+01       1.83209e-04       1.12913e+02
 16.000      2.14283e+02       6.67776e+00       2.25415e+01       1.80637e-04       1.11091e+02
 16.100      2.13827e+02       6.55781e+00       2.19219e+01       1.78101e-04       1.09297e+02
 16.200      2.13377e+02       6.42716e+00       2.13016e+01       1.75598e-04       1.07535e+02
 16.300      2.12940e+02       6.28561e+00       2.06835e+01       1.73126e-04       1.05804e+02
 16.400      2.12521e+02       6.13298e+00       2.00701e+01       1.70682e-04       1.04105e+02
 16.500      2.12124e+02       5.96909e+00       1.94641e+01       1.68266e-04       1.02440e+02
 16.600      2.11755e+02       5.79377e+00       1.88682e+01       1.65875e-04       1.00808e+02
 16.700      2.11418e+02       5.60683e+00       1.82850e+01       1.63508e-04       9.92119e+01
 16.800      2.11117e+02       5.40844e+00       1.77158e+01       1.61163e-04       9.76496e+01
 16.900      2.10850e+02       5.19908e+00       1.71602e+01       1.58839e-04       9.61200e+01
 17.000      2.10616e+02       4.97925e+00       1.66180e+01       1.56537e-04       9.46213e+01
 17.100      2.10413e+02       4.74944e+00       1.60890e+01       1.54255e-04       9.31523e+01
 17.200      2.10241e+02       4.51016e+00       1.55729e+01       1.51993e-04       9.17113e+01
 17.300      2.10099e+02       4.26191e+00       1.50693e+01       1.49750e-04       9.02971e+01
 17.400      2.09985e+02       4.00517e+00       1.45780e+01       1.47527e-04       8.89083e+01
 17.500      2.09899e+02       3.74046e+00       1.40987e+01       1.45323e-04       8.75437e+01
 17.600      2.09838e+02       3.46827e+00       1.36311e+01       1.43136e-04       8.62020e+01
 17.700      2.09804e+02       3.18910e+00       1.31749e+01       1.40968e-04       8.48822e+01
 17.800      2.09793e+02       2.90345e+00       1.27299e+01       1.38818e-04       8.35831e+01
 17.900      2.09805e+02       2.61181e+00       1.22958e+01       1.36685e-04       8.23037e+01
 18.000      2.09839e+02       2.31468e+00       1.18723e+01       1.34570e-04       8.10431e+01
 18.100      2.09894e+02       2.01257e+00       1.14591e+01       1.32471e-04       7.98002e+01
 18.200      2.09969e+02       1.70597e+00       1.10559e+01       1.30390e-04       7.85742e+01
 18.300      2.10062e+02       1.39539e+00       1.06625e+01       1.28325e-04       7.73643e+01
 18.400      2.10173e+02       1.08131e+00       1.02785e+01       1.26277e-04       7.61695e+01
 18.500      2.10300e+02       7.64237e-01       9.90375e+00       1.24244e-04       7.49892e+01
 18.600      2.10443e+02       4.44672e-01       9.53787e+00       1.22229e-04       7.38226e+01
 18.700      2.10600e+02       1.23113e-01       9.18060e+00       1.20229e-04       7.26691e+01
 18.800      2.10770e+02      -1.99937e-01       8.83168e+00       1.18246e-04       7.15279e+01
 18.900      2.10952e+02      -5.23990e-01       8.49081e+00       1.16278e-04       7.03984e+01
 19.000      2.11145e+02      -8.48539e-01       8.15771e+00       1.14326e-04       6.92802e+01
 19.100      2.11348e+02      -1.17305e+00       7.83231e+00       1.12392e-04       6.81734e+01
 19.200      2.11560e+02      -1.49699e+00       7.51459e+00       1.10476e-04       6.70786e+01
 19.300      2.11780e+02      -1.81977e+00       7.20458e+00       1.08581e-04       6.59965e+01
 19.400      2.12008e+02      -2.14088e+00       6.90227e+00       1.06707e-04       6.49275e+01
 19.500      2.12242e+02      -2.45975e+00       6.60770e+00       1.04858e-04       6.38722e+01
 19.600      2.12481e+02      -2.77584e+00       6.32086e+00       1.03032e-04       6.28311e+01
 19.700      2.12724e+02      -3.08858e+00       6.04177e+00       1.01233e-04       6.18045e+01
 19.800      2.12971e+02      -3.39743e+00       5.77044e+00       9.94608e-05       6.07930e+01
 19.900      2.13220e+02      -3.70184e+00       5.50689e+00       9.77166e-05       5.97968e+01
 20.000      2.13471e+02      -4.00126e+00       5.25112e+00       9.60014e-05       5.88163e+01
 20.100      2.13722e+02      -4.29513e+00       5.00314e+00       9.43159e-05       5.78518e+01
 20.200      2.13974e+02      -4.58291e+00       4.76297e+00       9.26609e-05       5.69034e+01
 20.300      2.14224e+02      -4.86404e+00       4.53063e+00       9.10372e-05       5.59716e+01
