# Data Source: NASA GEOS5 Near-Real-Time
# Model Time = 2010-08-27 18:00:00
# Location = [  39.7393, -104.9900 ]
# Fields = [ Z(km), T(K), U(m/s), V(m/s), R(g/cm3), P(mbar) ]
# Ground Height = 1.589
  0.000      3.14121e+02      -8.61401e-01       1.76211e+00       1.11892e-03       1.00874e+03
  0.100      3.13556e+02      -8.68889e-01       1.74931e+00       1.10785e-03       9.96959e+02
  0.200      3.12984e+02      -8.78344e-01       1.73804e+00       1.09692e-03       9.85322e+02
  0.300      3.12380e+02      -8.97356e-01       1.73416e+00       1.08623e-03       9.73839e+02
  0.400      3.11732e+02      -9.28540e-01       1.73767e+00       1.07583e-03       9.62517e+02
  0.500      3.11060e+02      -9.59821e-01       1.73120e+00       1.06565e-03       9.51354e+02
  0.600      3.10390e+02      -9.78871e-01       1.70078e+00       1.05559e-03       9.40344e+02
  0.700      3.09725e+02      -9.87534e-01       1.67054e+00       1.04564e-03       9.29482e+02
  0.800      3.09060e+02      -9.92016e-01       1.67561e+00       1.03580e-03       9.18762e+02
  0.900      3.08389e+02      -9.86852e-01       1.70875e+00       1.02611e-03       9.08183e+02
  1.000      3.07704e+02      -9.57273e-01       1.72871e+00       1.01657e-03       8.97747e+02
  1.100      3.07011e+02      -9.01755e-01       1.71272e+00       1.00719e-03       8.87456e+02
  1.200      3.06342e+02      -8.47527e-01       1.67931e+00       9.97844e-04       8.77306e+02
  1.300      3.05727e+02      -8.19526e-01       1.65019e+00       9.88442e-04       8.67296e+02
  1.400      3.05144e+02      -7.94225e-01       1.62976e+00       9.79056e-04       8.57422e+02
  1.500      3.04545e+02      -7.24752e-01       1.61397e+00       9.69838e-04       8.47682e+02
  1.600      3.03889e+02      -5.93760e-01       1.59323e+00       9.60912e-04       8.38071e+02
  1.700      3.03149e+02      -4.43280e-01       1.54703e+00       9.52348e-04       8.28577e+02
  1.800      3.02302e+02      -3.19617e-01       1.45541e+00       9.44198e-04       8.19192e+02
  1.900      3.01372e+02      -2.30339e-01       1.32417e+00       9.36372e-04       8.09904e+02
  2.000      3.00416e+02      -1.54734e-01       1.17791e+00       9.28680e-04       8.00703e+02
  2.100      2.99484e+02      -7.48871e-02       1.03857e+00       9.20959e-04       7.91581e+02
  2.200      2.98584e+02       9.78039e-03       9.12491e-01       9.13184e-04       7.82541e+02
  2.300      2.97716e+02       9.44053e-02       8.01123e-01       9.05376e-04       7.73593e+02
  2.400      2.96870e+02       1.76898e-01       7.07445e-01       8.97563e-04       7.64739e+02
  2.500      2.96028e+02       2.62140e-01       6.38286e-01       8.89799e-04       7.55974e+02
  2.600      2.95168e+02       3.56115e-01       6.00938e-01       8.82143e-04       7.47291e+02
  2.700      2.94274e+02       4.66465e-01       5.93669e-01       8.74633e-04       7.38686e+02
  2.800      2.93345e+02       6.03543e-01       5.99966e-01       8.67277e-04       7.30161e+02
  2.900      2.92379e+02       7.77679e-01       6.02226e-01       8.60081e-04       7.21717e+02
  3.000      2.91382e+02       9.87769e-01       5.94333e-01       8.53020e-04       7.13353e+02
  3.100      2.90375e+02       1.21746e+00       5.85490e-01       8.46030e-04       7.05062e+02
  3.200      2.89377e+02       1.44944e+00       5.86002e-01       8.39047e-04       6.96838e+02
  3.300      2.88397e+02       1.67058e+00       6.07554e-01       8.32040e-04       6.88677e+02
  3.400      2.87432e+02       1.87339e+00       6.63707e-01       8.25020e-04       6.80584e+02
  3.500      2.86481e+02       2.05082e+00       7.68013e-01       8.18003e-04       6.72562e+02
  3.600      2.85540e+02       2.20002e+00       9.23930e-01       8.10998e-04       6.64611e+02
  3.700      2.84608e+02       2.32515e+00       1.11802e+00       8.04006e-04       6.56731e+02
  3.800      2.83684e+02       2.43101e+00       1.33524e+00       7.97027e-04       6.48919e+02
  3.900      2.82768e+02       2.52018e+00       1.56362e+00       7.90067e-04       6.41174e+02
  4.000      2.81853e+02       2.58929e+00       1.79931e+00       7.83139e-04       6.33495e+02
  4.100      2.80933e+02       2.63399e+00       2.03979e+00       7.76261e-04       6.25882e+02
  4.200      2.80004e+02       2.65103e+00       2.28189e+00       7.69445e-04       6.18335e+02
  4.300      2.79068e+02       2.64349e+00       2.51869e+00       7.62683e-04       6.10853e+02
  4.400      2.78133e+02       2.61664e+00       2.74195e+00       7.55958e-04       6.03438e+02
  4.500      2.77204e+02       2.57586e+00       2.94368e+00       7.49255e-04       5.96089e+02
  4.600      2.76281e+02       2.52795e+00       3.12087e+00       7.42576e-04       5.88808e+02
  4.700      2.75356e+02       2.48106e+00       3.27503e+00       7.35939e-04       5.81592e+02
  4.800      2.74423e+02       2.44337e+00       3.40788e+00       7.29360e-04       5.74440e+02
  4.900      2.73477e+02       2.42306e+00       3.52133e+00       7.22852e-04       5.67351e+02
  5.000      2.72518e+02       2.42825e+00       3.61786e+00       7.16413e-04       5.60325e+02
  5.100      2.71548e+02       2.46705e+00       3.70012e+00       7.10039e-04       5.53363e+02
  5.200      2.70568e+02       2.54704e+00       3.77089e+00       7.03725e-04       5.46463e+02
  5.300      2.69586e+02       2.66481e+00       3.83664e+00       6.97454e-04       5.39627e+02
  5.400      2.68613e+02       2.80627e+00       3.90733e+00       6.91193e-04       5.32853e+02
  5.500      2.67661e+02       2.95692e+00       3.99309e+00       6.84912e-04       5.26140e+02
  5.600      2.66742e+02       3.10195e+00       4.10166e+00       6.78581e-04       5.19487e+02
  5.700      2.65865e+02       3.22460e+00       4.22481e+00       6.72182e-04       5.12896e+02
  5.800      2.65036e+02       3.30732e+00       4.34771e+00       6.65700e-04       5.06366e+02
  5.900      2.64262e+02       3.33251e+00       4.45553e+00       6.59122e-04       4.99900e+02
  6.000      2.63548e+02       3.29176e+00       4.53758e+00       6.52442e-04       4.93497e+02
  6.100      2.62884e+02       3.21149e+00       4.59919e+00       6.45691e-04       4.87159e+02
  6.200      2.62255e+02       3.12648e+00       4.64946e+00       6.38905e-04       4.80886e+02
  6.300      2.61649e+02       3.07148e+00       4.69750e+00       6.32119e-04       4.74679e+02
  6.400      2.61056e+02       3.07210e+00       4.75166e+00       6.25361e-04       4.68539e+02
  6.500      2.60475e+02       3.12254e+00       4.81759e+00       6.18629e-04       4.62465e+02
  6.600      2.59909e+02       3.21033e+00       4.90041e+00       6.11921e-04       4.56455e+02
  6.700      2.59360e+02       3.32295e+00       5.00519e+00       6.05230e-04       4.50511e+02
  6.800      2.58829e+02       3.44910e+00       5.13744e+00       5.98556e-04       4.44631e+02
  6.900      2.58309e+02       3.58355e+00       5.30461e+00       5.91915e-04       4.38815e+02
  7.000      2.57791e+02       3.72305e+00       5.51480e+00       5.85330e-04       4.33063e+02
  7.100      2.57266e+02       3.86434e+00       5.77613e+00       5.78820e-04       4.27374e+02
  7.200      2.56724e+02       4.00438e+00       6.09608e+00       5.72405e-04       4.21747e+02
  7.300      2.56163e+02       4.14324e+00       6.47200e+00       5.66092e-04       4.16183e+02
  7.400      2.55581e+02       4.28359e+00       6.89300e+00       5.59878e-04       4.10681e+02
  7.500      2.54982e+02       4.42814e+00       7.34796e+00       5.53758e-04       4.05238e+02
  7.600      2.54364e+02       4.57962e+00       7.82576e+00       5.47729e-04       3.99856e+02
  7.700      2.53729e+02       4.74134e+00       8.31326e+00       5.41788e-04       3.94531e+02
  7.800      2.53081e+02       4.91880e+00       8.78985e+00       5.35925e-04       3.89265e+02
  7.900      2.52422e+02       5.11800e+00       9.23319e+00       5.30133e-04       3.84056e+02
  8.000      2.51757e+02       5.34493e+00       9.62096e+00       5.24402e-04       3.78903e+02
  8.100      2.51089e+02       5.60557e+00       9.93090e+00       5.18725e-04       3.73806e+02
  8.200      2.50419e+02       5.90196e+00       1.01485e+01       5.13096e-04       3.68764e+02
  8.300      2.49748e+02       6.22824e+00       1.02751e+01       5.07516e-04       3.63776e+02
  8.400      2.49074e+02       6.57755e+00       1.03139e+01       5.01988e-04       3.58843e+02
  8.500      2.48397e+02       6.94307e+00       1.02680e+01       4.96513e-04       3.53964e+02
  8.600      2.47714e+02       7.31796e+00       1.01407e+01       4.91093e-04       3.49138e+02
  8.700      2.47027e+02       7.69433e+00       9.93869e+00       4.85727e-04       3.44365e+02
  8.800      2.46340e+02       8.06179e+00       9.67691e+00       4.80407e-04       3.39646e+02
  8.900      2.45656e+02       8.40961e+00       9.37155e+00       4.75124e-04       3.34979e+02
  9.000      2.44981e+02       8.72705e+00       9.03875e+00       4.69870e-04       3.30363e+02
  9.100      2.44318e+02       9.00336e+00       8.69469e+00       4.64636e-04       3.25799e+02
  9.200      2.43671e+02       9.22939e+00       8.35382e+00       4.59418e-04       3.21287e+02
  9.300      2.43035e+02       9.40683e+00       8.01885e+00       4.54222e-04       3.16825e+02
  9.400      2.42406e+02       9.54195e+00       7.68757e+00       4.49059e-04       3.12413e+02
  9.500      2.41777e+02       9.64101e+00       7.35774e+00       4.43941e-04       3.08051e+02
  9.600      2.41142e+02       9.71030e+00       7.02713e+00       4.38879e-04       3.03738e+02
  9.700      2.40493e+02       9.75607e+00       6.69353e+00       4.33884e-04       2.99474e+02
  9.800      2.39829e+02       9.78371e+00       6.35626e+00       4.28961e-04       2.95258e+02
  9.900      2.39152e+02       9.79618e+00       6.01898e+00       4.24103e-04       2.91090e+02
 10.000      2.38468e+02       9.79600e+00       5.68608e+00       4.19299e-04       2.86969e+02
 10.100      2.37782e+02       9.78571e+00       5.36196e+00       4.14541e-04       2.82896e+02
 10.200      2.37099e+02       9.76782e+00       5.05103e+00       4.09818e-04       2.78870e+02
 10.300      2.36424e+02       9.74487e+00       4.75767e+00       4.05123e-04       2.74891e+02
 10.400      2.35761e+02       9.71839e+00       4.48702e+00       4.00450e-04       2.70958e+02
 10.500      2.35105e+02       9.68625e+00       4.24690e+00       3.95806e-04       2.67071e+02
 10.600      2.34451e+02       9.64548e+00       4.04575e+00       3.91200e-04       2.63228e+02
 10.700      2.33793e+02       9.59311e+00       3.89202e+00       3.86641e-04       2.59431e+02
 10.800      2.33125e+02       9.52617e+00       3.79414e+00       3.82137e-04       2.55676e+02
 10.900      2.32442e+02       9.44168e+00       3.76057e+00       3.77698e-04       2.51965e+02
 11.000      2.31738e+02       9.33689e+00       3.79940e+00       3.73329e-04       2.48297e+02
 11.100      2.31013e+02       9.21506e+00       3.90930e+00       3.69032e-04       2.44670e+02
 11.200      2.30272e+02       9.08604e+00       4.07864e+00       3.64794e-04       2.41086e+02
 11.300      2.29523e+02       8.96000e+00       4.29528e+00       3.60607e-04       2.37543e+02
 11.400      2.28770e+02       8.84711e+00       4.54706e+00       3.56460e-04       2.34041e+02
 11.500      2.28020e+02       8.75754e+00       4.82184e+00       3.52343e-04       2.30580e+02
 11.600      2.27279e+02       8.70147e+00       5.10745e+00       3.48248e-04       2.27159e+02
 11.700      2.26554e+02       8.68890e+00       5.39185e+00       3.44165e-04       2.23779e+02
 11.800      2.25845e+02       8.72123e+00       5.66804e+00       3.40091e-04       2.20439e+02
 11.900      2.25152e+02       8.78756e+00       5.93621e+00       3.36031e-04       2.17139e+02
 12.000      2.24472e+02       8.87602e+00       6.19715e+00       3.31989e-04       2.13878e+02
 12.100      2.23801e+02       8.97474e+00       6.45163e+00       3.27969e-04       2.10657e+02
 12.200      2.23137e+02       9.07188e+00       6.70040e+00       3.23977e-04       2.07476e+02
 12.300      2.22477e+02       9.15556e+00       6.94426e+00       3.20016e-04       2.04333e+02
 12.400      2.21819e+02       9.21393e+00       7.18395e+00       3.16090e-04       2.01229e+02
 12.500      2.21160e+02       9.23564e+00       7.41987e+00       3.12203e-04       1.98164e+02
 12.600      2.20500e+02       9.21713e+00       7.64645e+00       3.08355e-04       1.95137e+02
 12.700      2.19839e+02       9.16084e+00       7.85356e+00       3.04543e-04       1.92148e+02
 12.800      2.19181e+02       9.06935e+00       8.03096e+00       3.00765e-04       1.89196e+02
 12.900      2.18526e+02       8.94525e+00       8.16842e+00       2.97018e-04       1.86281e+02
 13.000      2.17877e+02       8.79110e+00       8.25569e+00       2.93299e-04       1.83402e+02
 13.100      2.17234e+02       8.60950e+00       8.28254e+00       2.89606e-04       1.80559e+02
 13.200      2.16600e+02       8.40304e+00       8.23871e+00       2.85937e-04       1.77750e+02
 13.300      2.15975e+02       8.17428e+00       8.11398e+00       2.82290e-04       1.74977e+02
 13.400      2.15362e+02       7.92721e+00       7.90260e+00       2.78662e-04       1.72238e+02
 13.500      2.14761e+02       7.67124e+00       7.61635e+00       2.75055e-04       1.69534e+02
 13.600      2.14170e+02       7.41710e+00       7.27133e+00       2.71471e-04       1.66864e+02
 13.700      2.13591e+02       7.17555e+00       6.88360e+00       2.67910e-04       1.64230e+02
 13.800      2.13022e+02       6.95730e+00       6.46924e+00       2.64373e-04       1.61630e+02
 13.900      2.12463e+02       6.77311e+00       6.04433e+00       2.60863e-04       1.59066e+02
 14.000      2.11915e+02       6.63371e+00       5.62493e+00       2.57380e-04       1.56537e+02
 14.100      2.11377e+02       6.54983e+00       5.22712e+00       2.53925e-04       1.54044e+02
 14.200      2.10848e+02       6.53222e+00       4.86698e+00       2.50500e-04       1.51586e+02
 14.300      2.10329e+02       6.59144e+00       4.56043e+00       2.47105e-04       1.49164e+02
 14.400      2.09820e+02       6.72860e+00       4.31506e+00       2.43740e-04       1.46776e+02
 14.500      2.09325e+02       6.93070e+00       4.12604e+00       2.40399e-04       1.44422e+02
 14.600      2.08845e+02       7.18356e+00       3.98749e+00       2.37078e-04       1.42101e+02
 14.700      2.08384e+02       7.47302e+00       3.89355e+00       2.33774e-04       1.39811e+02
 14.800      2.07945e+02       7.78492e+00       3.83836e+00       2.30482e-04       1.37552e+02
 14.900      2.07531e+02       8.10508e+00       3.81605e+00       2.27198e-04       1.35322e+02
 15.000      2.07143e+02       8.41934e+00       3.82076e+00       2.23920e-04       1.33121e+02
 15.100      2.06786e+02       8.71353e+00       3.84663e+00       2.20644e-04       1.30947e+02
 15.200      2.06462e+02       8.97349e+00       3.88778e+00       2.17367e-04       1.28800e+02
 15.300      2.06174e+02       9.18505e+00       3.93836e+00       2.14085e-04       1.26678e+02
 15.400      2.05924e+02       9.33406e+00       3.99251e+00       2.10797e-04       1.24582e+02
 15.500      2.05715e+02       9.41210e+00       4.04599e+00       2.07504e-04       1.22511e+02
 15.600      2.05544e+02       9.42346e+00       4.09815e+00       2.04210e-04       1.20466e+02
 15.700      2.05408e+02       9.37412e+00       4.14884e+00       2.00924e-04       1.18449e+02
 15.800      2.05306e+02       9.27010e+00       4.19791e+00       1.97652e-04       1.16462e+02
 15.900      2.05234e+02       9.11740e+00       4.24520e+00       1.94401e-04       1.14506e+02
 16.000      2.05191e+02       8.92202e+00       4.29057e+00       1.91175e-04       1.12583e+02
 16.100      2.05175e+02       8.68997e+00       4.33385e+00       1.87982e-04       1.10693e+02
 16.200      2.05182e+02       8.42724e+00       4.37489e+00       1.84825e-04       1.08838e+02
 16.300      2.05211e+02       8.13986e+00       4.41353e+00       1.81710e-04       1.07019e+02
 16.400      2.05259e+02       7.83381e+00       4.44963e+00       1.78641e-04       1.05236e+02
 16.500      2.05324e+02       7.51509e+00       4.48303e+00       1.75623e-04       1.03491e+02
 16.600      2.05403e+02       7.18972e+00       4.51357e+00       1.72659e-04       1.01783e+02
 16.700      2.05494e+02       6.86370e+00       4.54110e+00       1.69753e-04       1.00115e+02
 16.800      2.05595e+02       6.54220e+00       4.56550e+00       1.66907e-04       9.84848e+01
 16.900      2.05706e+02       6.22621e+00       4.58676e+00       1.64120e-04       9.68924e+01
 17.000      2.05825e+02       5.91550e+00       4.60495e+00       1.61389e-04       9.53356e+01
 17.100      2.05954e+02       5.60979e+00       4.62010e+00       1.58712e-04       9.38127e+01
 17.200      2.06092e+02       5.30885e+00       4.63228e+00       1.56085e-04       9.23220e+01
 17.300      2.06239e+02       5.01240e+00       4.64152e+00       1.53508e-04       9.08618e+01
 17.400      2.06394e+02       4.72019e+00       4.64788e+00       1.50976e-04       8.94308e+01
 17.500      2.06558e+02       4.43196e+00       4.65141e+00       1.48489e-04       8.80274e+01
 17.600      2.06731e+02       4.14745e+00       4.65215e+00       1.46044e-04       8.66501e+01
 17.700      2.06912e+02       3.86640e+00       4.65016e+00       1.43638e-04       8.52978e+01
 17.800      2.07101e+02       3.58857e+00       4.64548e+00       1.41272e-04       8.39691e+01
 17.900      2.07298e+02       3.31368e+00       4.63817e+00       1.38942e-04       8.26629e+01
 18.000      2.07504e+02       3.04149e+00       4.62827e+00       1.36646e-04       8.13779e+01
 18.100      2.07717e+02       2.77172e+00       4.61583e+00       1.34384e-04       8.01131e+01
 18.200      2.07939e+02       2.50413e+00       4.60090e+00       1.32154e-04       7.88674e+01
 18.300      2.08168e+02       2.23847e+00       4.58354e+00       1.29954e-04       7.76399e+01
 18.400      2.08404e+02       1.97446e+00       4.56378e+00       1.27783e-04       7.64296e+01
 18.500      2.08648e+02       1.71185e+00       4.54169e+00       1.25639e-04       7.52355e+01
 18.600      2.08900e+02       1.45038e+00       4.51730e+00       1.23522e-04       7.40569e+01
 18.700      2.09158e+02       1.18980e+00       4.49068e+00       1.21431e-04       7.28930e+01
 18.800      2.09424e+02       9.29855e-01       4.46186e+00       1.19363e-04       7.17429e+01
 18.900      2.09697e+02       6.70272e-01       4.43089e+00       1.17319e-04       7.06059e+01
 19.000      2.09976e+02       4.10819e-01       4.39784e+00       1.15297e-04       6.94814e+01
 19.100      2.10262e+02       1.51726e-01       4.36271e+00       1.13297e-04       6.83693e+01
 19.200      2.10554e+02      -1.06254e-01       4.32552e+00       1.11321e-04       6.72701e+01
 19.300      2.10850e+02      -3.62339e-01       4.28628e+00       1.09370e-04       6.61842e+01
 19.400      2.11150e+02      -6.15759e-01       4.24498e+00       1.07445e-04       6.51121e+01
 19.500      2.11454e+02      -8.65730e-01       4.20162e+00       1.05548e-04       6.40543e+01
 19.600      2.11759e+02      -1.11147e+00       4.15622e+00       1.03679e-04       6.30110e+01
 19.700      2.12066e+02      -1.35221e+00       4.10878e+00       1.01840e-04       6.19827e+01
 19.800      2.12374e+02      -1.58716e+00       4.05929e+00       1.00030e-04       6.09697e+01
 19.900      2.12681e+02      -1.81555e+00       4.00777e+00       9.82516e-05       5.99722e+01
 20.000      2.12987e+02      -2.03660e+00       3.95421e+00       9.65044e-05       5.89904e+01
 20.100      2.13291e+02      -2.24953e+00       3.89862e+00       9.47893e-05       5.80248e+01
 20.200      2.13592e+02      -2.45356e+00       3.84100e+00       9.31068e-05       5.70753e+01
 20.300      2.13890e+02      -2.64791e+00       3.78136e+00       9.14573e-05       5.61422e+01
