# Data Source: NASA MERRA (version 2)
# Model Time = 2011-01-03 18:00:00
# Location = [  39.1026,  -84.5123 ]
# Fields = [ Z(km), T(K), U(m/s), V(m/s), R(g/cm3), P(mbar) ]
# Ground Height = 0.165
  0.000      2.77701e+02       4.14645e+00       5.22084e+00       1.28523e-03       1.02433e+03
  0.100      2.76765e+02       4.47589e+00       5.66990e+00       1.27367e-03       1.01170e+03
  0.200      2.75842e+02       4.89181e+00       6.18583e+00       1.26221e-03       9.99248e+02
  0.300      2.74918e+02       5.30213e+00       6.69743e+00       1.25086e-03       9.86949e+02
  0.400      2.73979e+02       5.61478e+00       7.13350e+00       1.23966e-03       9.74770e+02
  0.500      2.73016e+02       5.76954e+00       7.43532e+00       1.22861e-03       9.62686e+02
  0.600      2.72053e+02       5.82650e+00       7.59121e+00       1.21761e-03       9.50702e+02
  0.700      2.71128e+02       5.89592e+00       7.59404e+00       1.20650e-03       9.38826e+02
  0.800      2.70314e+02       6.19183e+00       7.40533e+00       1.19498e-03       9.27065e+02
  0.900      2.69678e+02       6.90414e+00       6.99124e+00       1.18276e-03       9.15426e+02
  1.000      2.69167e+02       7.84525e+00       6.41371e+00       1.17009e-03       9.03909e+02
  1.100      2.68684e+02       8.68820e+00       5.76924e+00       1.15742e-03       8.92516e+02
  1.200      2.68210e+02       9.33481e+00       5.08655e+00       1.14483e-03       8.81246e+02
  1.300      2.67780e+02       9.83825e+00       4.34951e+00       1.13217e-03       8.70103e+02
  1.400      2.67429e+02       1.02544e+01       3.54120e+00       1.11930e-03       8.59087e+02
  1.500      2.67192e+02       1.06390e+01       2.64477e+00       1.10610e-03       8.48200e+02
  1.600      2.67081e+02       1.10362e+01       1.66165e+00       1.09252e-03       8.37443e+02
  1.700      2.67054e+02       1.14610e+01       6.38241e-01       1.07877e-03       8.26817e+02
  1.800      2.67063e+02       1.19242e+01      -3.72305e-01       1.06504e-03       8.16320e+02
  1.900      2.67056e+02       1.24366e+01      -1.31683e+00       1.05154e-03       8.05955e+02
  2.000      2.66986e+02       1.30084e+01      -2.14296e+00       1.03846e-03       7.95720e+02
  2.100      2.66838e+02       1.36357e+01      -2.82588e+00       1.02584e-03       7.85614e+02
  2.200      2.66642e+02       1.42965e+01      -3.37473e+00       1.01355e-03       7.75634e+02
  2.300      2.66431e+02       1.49679e+01      -3.80074e+00       1.00147e-03       7.65778e+02
  2.400      2.66237e+02       1.56270e+01      -4.11515e+00       9.89452e-04       7.56042e+02
  2.500      2.66093e+02       1.62510e+01      -4.32922e+00       9.77396e-04       7.46424e+02
  2.600      2.66003e+02       1.68291e+01      -4.45540e+00       9.65281e-04       7.36922e+02
  2.700      2.65935e+02       1.73675e+01      -4.50776e+00       9.53226e-04       7.27535e+02
  2.800      2.65857e+02       1.78733e+01      -4.50049e+00       9.41355e-04       7.18262e+02
  2.900      2.65732e+02       1.83537e+01      -4.44779e+00       9.29786e-04       7.09101e+02
  3.000      2.65526e+02       1.88160e+01      -4.36385e+00       9.18630e-04       7.00052e+02
  3.100      2.65214e+02       1.92682e+01      -4.26183e+00       9.07969e-04       6.91112e+02
  3.200      2.64797e+02       1.97216e+01      -4.15068e+00       8.97772e-04       6.82278e+02
  3.300      2.64289e+02       2.01883e+01      -4.03827e+00       8.87986e-04       6.73545e+02
  3.400      2.63699e+02       2.06804e+01      -3.93248e+00       8.78558e-04       6.64908e+02
  3.500      2.63040e+02       2.12102e+01      -3.84116e+00       8.69440e-04       6.56362e+02
  3.600      2.62323e+02       2.17897e+01      -3.77216e+00       8.60582e-04       6.47904e+02
  3.700      2.61559e+02       2.24233e+01      -3.72790e+00       8.51940e-04       6.39530e+02
  3.800      2.60761e+02       2.31009e+01      -3.70030e+00       8.43469e-04       6.31238e+02
  3.900      2.59940e+02       2.38104e+01      -3.68007e+00       8.35128e-04       6.23029e+02
  4.000      2.59109e+02       2.45398e+01      -3.65790e+00       8.26877e-04       6.14901e+02
  4.100      2.58280e+02       2.52772e+01      -3.62451e+00       8.18675e-04       6.06854e+02
  4.200      2.57464e+02       2.60106e+01      -3.57059e+00       8.10485e-04       5.98885e+02
  4.300      2.56672e+02       2.67298e+01      -3.48964e+00       8.02277e-04       5.90996e+02
  4.400      2.55905e+02       2.74287e+01      -3.38247e+00       7.94047e-04       5.83186e+02
  4.500      2.55165e+02       2.81024e+01      -3.25107e+00       7.85794e-04       5.75456e+02
  4.600      2.54453e+02       2.87455e+01      -3.09746e+00       7.77519e-04       5.67806e+02
  4.700      2.53770e+02       2.93529e+01      -2.92365e+00       7.69221e-04       5.60239e+02
  4.800      2.53117e+02       2.99195e+01      -2.73163e+00       7.60900e-04       5.52752e+02
  4.900      2.52495e+02       3.04404e+01      -2.52364e+00       7.52557e-04       5.45348e+02
  5.000      2.51900e+02       3.09160e+01      -2.30480e+00       7.44207e-04       5.38026e+02
  5.100      2.51324e+02       3.13502e+01      -2.08228e+00       7.35875e-04       5.30786e+02
  5.200      2.50760e+02       3.17468e+01      -1.86333e+00       7.27584e-04       5.23628e+02
  5.300      2.50199e+02       3.21100e+01      -1.65518e+00       7.19359e-04       5.16551e+02
  5.400      2.49634e+02       3.24436e+01      -1.46505e+00       7.11222e-04       5.09555e+02
  5.500      2.49057e+02       3.27517e+01      -1.30017e+00       7.03194e-04       5.02639e+02
  5.600      2.48461e+02       3.30383e+01      -1.16740e+00       6.95295e-04       4.95803e+02
  5.700      2.47844e+02       3.33110e+01      -1.06824e+00       6.87528e-04       4.89046e+02
  5.800      2.47208e+02       3.35794e+01      -1.00026e+00       6.79880e-04       4.82365e+02
  5.900      2.46555e+02       3.38533e+01      -9.60916e-01       6.72342e-04       4.75758e+02
  6.000      2.45888e+02       3.41424e+01      -9.47680e-01       6.64904e-04       4.69221e+02
  6.100      2.45208e+02       3.44565e+01      -9.58018e-01       6.57556e-04       4.62754e+02
  6.200      2.44520e+02       3.48054e+01      -9.89394e-01       6.50289e-04       4.56354e+02
  6.300      2.43823e+02       3.51988e+01      -1.03928e+00       6.43093e-04       4.50018e+02
  6.400      2.43122e+02       3.56458e+01      -1.10518e+00       6.35960e-04       4.43747e+02
  6.500      2.42420e+02       3.61525e+01      -1.18478e+00       6.28883e-04       4.37542e+02
  6.600      2.41721e+02       3.67244e+01      -1.27583e+00       6.21858e-04       4.31407e+02
  6.700      2.41030e+02       3.73668e+01      -1.37607e+00       6.14879e-04       4.25346e+02
  6.800      2.40351e+02       3.80852e+01      -1.48322e+00       6.07941e-04       4.19361e+02
  6.900      2.39688e+02       3.88850e+01      -1.59503e+00       6.01038e-04       4.13456e+02
  7.000      2.39045e+02       3.97716e+01      -1.70922e+00       5.94166e-04       4.07633e+02
  7.100      2.38427e+02       4.07504e+01      -1.82355e+00       5.87319e-04       4.01894e+02
  7.200      2.37838e+02       4.18257e+01      -1.93618e+00       5.80493e-04       3.96242e+02
  7.300      2.37276e+02       4.29896e+01      -2.05034e+00       5.73686e-04       3.90669e+02
  7.400      2.36734e+02       4.42260e+01      -2.17256e+00       5.66896e-04       3.85165e+02
  7.500      2.36209e+02       4.55188e+01      -2.30938e+00       5.60125e-04       3.79719e+02
  7.600      2.35693e+02       4.68519e+01      -2.46737e+00       5.53371e-04       3.74323e+02
  7.700      2.35183e+02       4.82090e+01      -2.65309e+00       5.46635e-04       3.68965e+02
  7.800      2.34671e+02       4.95741e+01      -2.87310e+00       5.39917e-04       3.63638e+02
  7.900      2.34154e+02       5.09310e+01      -3.13397e+00       5.33216e-04       3.58332e+02
  8.000      2.33624e+02       5.22635e+01      -3.44225e+00       5.26535e-04       3.53042e+02
  8.100      2.33077e+02       5.35557e+01      -3.80426e+00       5.19872e-04       3.47758e+02
  8.200      2.32510e+02       5.47966e+01      -4.21772e+00       5.13247e-04       3.42492e+02
  8.300      2.31926e+02       5.59812e+01      -4.66991e+00       5.06694e-04       3.37270e+02
  8.400      2.31326e+02       5.71051e+01      -5.14748e+00       5.00249e-04       3.32118e+02
  8.500      2.30713e+02       5.81638e+01      -5.63708e+00       4.93945e-04       3.27063e+02
  8.600      2.30087e+02       5.91527e+01      -6.12535e+00       4.87814e-04       3.22128e+02
  8.700      2.29452e+02       6.00674e+01      -6.59893e+00       4.81886e-04       3.17336e+02
  8.800      2.28810e+02       6.09032e+01      -7.04448e+00       4.76189e-04       3.12705e+02
  8.900      2.28161e+02       6.16558e+01      -7.44862e+00       4.70750e-04       3.08258e+02
  9.000      2.27509e+02       6.23205e+01      -7.79803e+00       4.65595e-04       3.04011e+02
  9.100      2.26856e+02       6.28930e+01      -8.07933e+00       4.60748e-04       2.99982e+02
  9.200      2.26203e+02       6.33700e+01      -8.28223e+00       4.56222e-04       2.96180e+02
  9.300      2.25553e+02       6.37543e+01      -8.40846e+00       4.51984e-04       2.92586e+02
  9.400      2.24909e+02       6.40500e+01      -8.46273e+00       4.47992e-04       2.89174e+02
  9.500      2.24275e+02       6.42612e+01      -8.44975e+00       4.44205e-04       2.85921e+02
  9.600      2.23653e+02       6.43920e+01      -8.37422e+00       4.40583e-04       2.82803e+02
  9.700      2.23046e+02       6.44465e+01      -8.24085e+00       4.37087e-04       2.79799e+02
  9.800      2.22458e+02       6.44287e+01      -8.05433e+00       4.33683e-04       2.76886e+02
  9.900      2.21890e+02       6.43428e+01      -7.81940e+00       4.30332e-04       2.74046e+02
 10.000      2.21347e+02       6.41930e+01      -7.54073e+00       4.27001e-04       2.71259e+02
 10.100      2.20831e+02       6.39831e+01      -7.22304e+00       4.23656e-04       2.68507e+02
 10.200      2.20345e+02       6.37175e+01      -6.87105e+00       4.20264e-04       2.65770e+02
 10.300      2.19891e+02       6.34001e+01      -6.48944e+00       4.16793e-04       2.63033e+02
 10.400      2.19474e+02       6.30351e+01      -6.08294e+00       4.13213e-04       2.60279e+02
 10.500      2.19096e+02       6.26266e+01      -5.65623e+00       4.09495e-04       2.57492e+02
 10.600      2.18759e+02       6.21786e+01      -5.21404e+00       4.05609e-04       2.54657e+02
 10.700      2.18468e+02       6.16953e+01      -4.76107e+00       4.01530e-04       2.51760e+02
 10.800      2.18224e+02       6.11807e+01      -4.30198e+00       3.97233e-04       2.48788e+02
 10.900      2.18027e+02       6.06382e+01      -3.84034e+00       3.92713e-04       2.45735e+02
 11.000      2.17874e+02       6.00701e+01      -3.37825e+00       3.87984e-04       2.42606e+02
 11.100      2.17760e+02       5.94788e+01      -2.91770e+00       3.83066e-04       2.39406e+02
 11.200      2.17681e+02       5.88665e+01      -2.46073e+00       3.77976e-04       2.36139e+02
 11.300      2.17632e+02       5.82355e+01      -2.00932e+00       3.72733e-04       2.32810e+02
 11.400      2.17608e+02       5.75882e+01      -1.56550e+00       3.67352e-04       2.29424e+02
 11.500      2.17605e+02       5.69268e+01      -1.13126e+00       3.61852e-04       2.25986e+02
 11.600      2.17619e+02       5.62536e+01      -7.08620e-01       3.56248e-04       2.22501e+02
 11.700      2.17646e+02       5.55710e+01      -2.99590e-01       3.50557e-04       2.18973e+02
 11.800      2.17680e+02       5.48812e+01       9.38277e-02       3.44794e-04       2.15407e+02
 11.900      2.17718e+02       5.41866e+01       4.69618e-01       3.38974e-04       2.11808e+02
 12.000      2.17755e+02       5.34894e+01       8.25780e-01       3.33111e-04       2.08180e+02
 12.100      2.17786e+02       5.27920e+01       1.16030e+00       3.27219e-04       2.04527e+02
 12.200      2.17808e+02       5.20966e+01       1.47117e+00       3.21311e-04       2.00854e+02
 12.300      2.17815e+02       5.14055e+01       1.75663e+00       3.15400e-04       1.97166e+02
 12.400      2.17808e+02       5.07198e+01       2.01694e+00       3.09502e-04       1.93472e+02
 12.500      2.17787e+02       5.00403e+01       2.25336e+00       3.03634e-04       1.89786e+02
 12.600      2.17753e+02       4.93678e+01       2.46716e+00       2.97811e-04       1.86117e+02
 12.700      2.17706e+02       4.87030e+01       2.65960e+00       2.92050e-04       1.82478e+02
 12.800      2.17648e+02       4.80467e+01       2.83195e+00       2.86364e-04       1.78877e+02
 12.900      2.17579e+02       4.73996e+01       2.98547e+00       2.80764e-04       1.75324e+02
 13.000      2.17500e+02       4.67624e+01       3.12142e+00       2.75264e-04       1.71827e+02
 13.100      2.17412e+02       4.61360e+01       3.24108e+00       2.69874e-04       1.68393e+02
 13.200      2.17315e+02       4.55210e+01       3.34569e+00       2.64602e-04       1.65031e+02
 13.300      2.17210e+02       4.49183e+01       3.43654e+00       2.59460e-04       1.61745e+02
 13.400      2.17098e+02       4.43285e+01       3.51488e+00       2.54453e-04       1.58543e+02
 13.500      2.16981e+02       4.37524e+01       3.58198e+00       2.49591e-04       1.55429e+02
 13.600      2.16857e+02       4.31908e+01       3.63910e+00       2.44878e-04       1.52407e+02
 13.700      2.16729e+02       4.26445e+01       3.68751e+00       2.40321e-04       1.49483e+02
 13.800      2.16598e+02       4.21136e+01       3.72821e+00       2.35922e-04       1.46657e+02
 13.900      2.16463e+02       4.15972e+01       3.76162e+00       2.31672e-04       1.43926e+02
 14.000      2.16325e+02       4.10942e+01       3.78803e+00       2.27564e-04       1.41284e+02
 14.100      2.16185e+02       4.06034e+01       3.80777e+00       2.23590e-04       1.38727e+02
 14.200      2.16044e+02       4.01238e+01       3.82116e+00       2.19742e-04       1.36250e+02
 14.300      2.15902e+02       3.96543e+01       3.82851e+00       2.16012e-04       1.33849e+02
 14.400      2.15760e+02       3.91936e+01       3.83013e+00       2.12395e-04       1.31521e+02
 14.500      2.15618e+02       3.87407e+01       3.82634e+00       2.08883e-04       1.29262e+02
 14.600      2.15477e+02       3.82944e+01       3.81746e+00       2.05471e-04       1.27067e+02
 14.700      2.15337e+02       3.78537e+01       3.80380e+00       2.02153e-04       1.24935e+02
 14.800      2.15200e+02       3.74174e+01       3.78568e+00       1.98923e-04       1.22860e+02
 14.900      2.15066e+02       3.69844e+01       3.76341e+00       1.95777e-04       1.20841e+02
 15.000      2.14935e+02       3.65535e+01       3.73731e+00       1.92708e-04       1.18874e+02
 15.100      2.14809e+02       3.61236e+01       3.70769e+00       1.89712e-04       1.16957e+02
 15.200      2.14686e+02       3.56937e+01       3.67487e+00       1.86785e-04       1.15088e+02
 15.300      2.14570e+02       3.52626e+01       3.63916e+00       1.83922e-04       1.13262e+02
 15.400      2.14459e+02       3.48291e+01       3.60089e+00       1.81120e-04       1.11479e+02
 15.500      2.14354e+02       3.43922e+01       3.56036e+00       1.78374e-04       1.09735e+02
 15.600      2.14257e+02       3.39507e+01       3.51788e+00       1.75681e-04       1.08029e+02
 15.700      2.14167e+02       3.35035e+01       3.47379e+00       1.73036e-04       1.06359e+02
 15.800      2.14086e+02       3.30494e+01       3.42839e+00       1.70438e-04       1.04721e+02
 15.900      2.14014e+02       3.25875e+01       3.38199e+00       1.67882e-04       1.03116e+02
 16.000      2.13951e+02       3.21164e+01       3.33492e+00       1.65365e-04       1.01541e+02
 16.100      2.13898e+02       3.16351e+01       3.28748e+00       1.62885e-04       9.99930e+01
 16.200      2.13856e+02       3.11429e+01       3.23997e+00       1.60439e-04       9.84720e+01
 16.300      2.13824e+02       3.06403e+01       3.19253e+00       1.58026e-04       9.69766e+01
 16.400      2.13802e+02       3.01281e+01       3.14528e+00       1.55645e-04       9.55058e+01
 16.500      2.13790e+02       2.96074e+01       3.09834e+00       1.53296e-04       9.40588e+01
 16.600      2.13786e+02       2.90789e+01       3.05184e+00       1.50978e-04       9.26347e+01
 16.700      2.13790e+02       2.85435e+01       3.00589e+00       1.48690e-04       9.12328e+01
 16.800      2.13803e+02       2.80023e+01       2.96062e+00       1.46432e-04       8.98525e+01
 16.900      2.13822e+02       2.74560e+01       2.91614e+00       1.44202e-04       8.84927e+01
 17.000      2.13849e+02       2.69055e+01       2.87258e+00       1.42002e-04       8.71530e+01
 17.100      2.13882e+02       2.63518e+01       2.83006e+00       1.39829e-04       8.58327e+01
 17.200      2.13921e+02       2.57958e+01       2.78869e+00       1.37683e-04       8.45310e+01
 17.300      2.13965e+02       2.52382e+01       2.74860e+00       1.35564e-04       8.32475e+01
 17.400      2.14015e+02       2.46802e+01       2.70990e+00       1.33472e-04       8.19815e+01
 17.500      2.14069e+02       2.41224e+01       2.67272e+00       1.31405e-04       8.07323e+01
 17.600      2.14126e+02       2.35659e+01       2.63718e+00       1.29364e-04       7.94996e+01
 17.700      2.14188e+02       2.30115e+01       2.60340e+00       1.27347e-04       7.82828e+01
 17.800      2.14252e+02       2.24601e+01       2.57150e+00       1.25355e-04       7.70814e+01
 17.900      2.14319e+02       2.19126e+01       2.54160e+00       1.23387e-04       7.58950e+01
 18.000      2.14388e+02       2.13700e+01       2.51381e+00       1.21443e-04       7.47229e+01
 18.100      2.14458e+02       2.08330e+01       2.48827e+00       1.19521e-04       7.35649e+01
 18.200      2.14530e+02       2.03027e+01       2.46508e+00       1.17623e-04       7.24206e+01
 18.300      2.14602e+02       1.97798e+01       2.44438e+00       1.15747e-04       7.12895e+01
 18.400      2.14674e+02       1.92653e+01       2.42628e+00       1.13893e-04       7.01712e+01
 18.500      2.14746e+02       1.87600e+01       2.41084e+00       1.12061e-04       6.90655e+01
 18.600      2.14817e+02       1.82641e+01       2.39776e+00       1.10251e-04       6.79725e+01
 18.700      2.14887e+02       1.77775e+01       2.38659e+00       1.08464e-04       6.68927e+01
 18.800      2.14954e+02       1.73002e+01       2.37687e+00       1.06702e-04       6.58263e+01
 18.900      2.15019e+02       1.68320e+01       2.36817e+00       1.04964e-04       6.47737e+01
 19.000      2.15080e+02       1.63730e+01       2.36003e+00       1.03251e-04       6.37349e+01
 19.100      2.15138e+02       1.59231e+01       2.35199e+00       1.01564e-04       6.27105e+01
 19.200      2.15191e+02       1.54823e+01       2.34362e+00       9.99040e-05       6.17005e+01
 19.300      2.15239e+02       1.50504e+01       2.33445e+00       9.82703e-05       6.07051e+01
 19.400      2.15281e+02       1.46274e+01       2.32405e+00       9.66639e-05       5.97245e+01
 19.500      2.15318e+02       1.42132e+01       2.31195e+00       9.50851e-05       5.87589e+01
 19.600      2.15347e+02       1.38079e+01       2.29771e+00       9.35341e-05       5.78084e+01
 19.700      2.15369e+02       1.34113e+01       2.28088e+00       9.20114e-05       5.68731e+01
 19.800      2.15383e+02       1.30234e+01       2.26101e+00       9.05170e-05       5.59531e+01
 19.900      2.15389e+02       1.26441e+01       2.23765e+00       8.90513e-05       5.50485e+01
 20.000      2.15386e+02       1.22734e+01       2.21035e+00       8.76143e-05       5.41593e+01
 20.100      2.15372e+02       1.19111e+01       2.17866e+00       8.62061e-05       5.32856e+01
 20.200      2.15349e+02       1.15574e+01       2.14213e+00       8.48270e-05       5.24274e+01
 20.300      2.15315e+02       1.12120e+01       2.10031e+00       8.34769e-05       5.15848e+01
