# Data Source: NASA GEOS5 Near-Real-Time
# Model Time = 2010-01-09 18:00:00
# Location = [  39.7393, -104.9900 ]
# Fields = [ Z(km), T(K), U(m/s), V(m/s), R(g/cm3), P(mbar) ]
# Ground Height = 1.589
  0.000      2.86565e+02      -7.36393e-02       1.37055e+00       1.24664e-03       1.02529e+03
  0.100      2.85917e+02      -7.79530e-02       1.34556e+00       1.23458e-03       1.01307e+03
  0.200      2.85255e+02      -7.20644e-02       1.32573e+00       1.22272e-03       1.00102e+03
  0.300      2.84591e+02      -6.53734e-02       1.30631e+00       1.21100e-03       9.89115e+02
  0.400      2.83940e+02      -6.72801e-02       1.28254e+00       1.19932e-03       9.77334e+02
  0.500      2.83311e+02      -8.70219e-02       1.24894e+00       1.18763e-03       9.65661e+02
  0.600      2.82689e+02      -1.32638e-01       1.19454e+00       1.17599e-03       9.54097e+02
  0.700      2.82048e+02      -2.08937e-01       1.11009e+00       1.16451e-03       9.42650e+02
  0.800      2.81375e+02      -2.86568e-01       1.03912e+00       1.15327e-03       9.31318e+02
  0.900      2.80664e+02      -3.14355e-01       1.05832e+00       1.14226e-03       9.20094e+02
  1.000      2.79943e+02      -2.91702e-01       1.14891e+00       1.13136e-03       9.08975e+02
  1.100      2.79279e+02      -2.77925e-01       1.17941e+00       1.12031e-03       8.97962e+02
  1.200      2.78700e+02      -3.22658e-01       1.08884e+00       1.10900e-03       8.87058e+02
  1.300      2.78136e+02      -4.45074e-01       9.95039e-01       1.09773e-03       8.76266e+02
  1.400      2.77523e+02      -6.45401e-01       1.01777e+00       1.08675e-03       8.65588e+02
  1.500      2.76918e+02      -8.40200e-01       1.14311e+00       1.07583e-03       8.55021e+02
  1.600      2.76418e+02      -9.20269e-01       1.30977e+00       1.06459e-03       8.44561e+02
  1.700      2.76044e+02      -8.57822e-01       1.45741e+00       1.05296e-03       8.34207e+02
  1.800      2.75753e+02      -7.02119e-01       1.52663e+00       1.04113e-03       8.23964e+02
  1.900      2.75499e+02      -4.97095e-01       1.45909e+00       1.02928e-03       8.13834e+02
  2.000      2.75258e+02      -2.61992e-01       1.19942e+00       1.01751e-03       8.03819e+02
  2.100      2.75003e+02      -1.24199e-02       6.97839e-01       1.00591e-03       7.93921e+02
  2.200      2.74709e+02       2.23191e-01      -2.48654e-02       9.94576e-04       7.84139e+02
  2.300      2.74347e+02       4.06938e-01      -8.95746e-01       9.83605e-04       7.74467e+02
  2.400      2.73901e+02       5.18173e-01      -1.83606e+00       9.73037e-04       7.64900e+02
  2.500      2.73400e+02       5.95483e-01      -2.75152e+00       9.62757e-04       7.55434e+02
  2.600      2.72881e+02       6.89604e-01      -3.54643e+00       9.52626e-04       7.46066e+02
  2.700      2.72355e+02       8.38015e-01      -4.18937e+00       9.42603e-04       7.36794e+02
  2.800      2.71800e+02       1.06190e+00      -4.72790e+00       9.32764e-04       7.27617e+02
  2.900      2.71197e+02       1.37797e+00      -5.21426e+00       9.23171e-04       7.18537e+02
  3.000      2.70590e+02       1.76846e+00      -5.69920e+00       9.13675e-04       7.09553e+02
  3.100      2.70055e+02       2.19601e+00      -6.23259e+00       9.04016e-04       7.00665e+02
  3.200      2.69650e+02       2.61997e+00      -6.84862e+00       8.94012e-04       6.91873e+02
  3.300      2.69325e+02       2.98454e+00      -7.50289e+00       8.83841e-04       6.83177e+02
  3.400      2.68996e+02       3.22917e+00      -8.12640e+00       8.73784e-04       6.74578e+02
  3.500      2.68598e+02       3.31322e+00      -8.66738e+00       8.64049e-04       6.66074e+02
  3.600      2.68128e+02       3.26486e+00      -9.13361e+00       8.54635e-04       6.57664e+02
  3.700      2.67599e+02       3.12708e+00      -9.54568e+00       8.45493e-04       6.49346e+02
  3.800      2.67020e+02       2.93602e+00      -9.92039e+00       8.36592e-04       6.41119e+02
  3.900      2.66386e+02       2.70620e+00      -1.02625e+01       8.27934e-04       6.32978e+02
  4.000      2.65692e+02       2.44786e+00      -1.05744e+01       8.19531e-04       6.24921e+02
  4.100      2.64937e+02       2.17144e+00      -1.08571e+01       8.11377e-04       6.16946e+02
  4.200      2.64142e+02       1.88806e+00      -1.11059e+01       8.03401e-04       6.09049e+02
  4.300      2.63333e+02       1.60906e+00      -1.13150e+01       7.95523e-04       6.01229e+02
  4.400      2.62534e+02       1.34444e+00      -1.14810e+01       7.87665e-04       5.93485e+02
  4.500      2.61761e+02       1.09574e+00      -1.16172e+01       7.79784e-04       5.85817e+02
  4.600      2.61028e+02       8.61129e-01      -1.17436e+01       7.71846e-04       5.78228e+02
  4.700      2.60344e+02       6.38665e-01      -1.18796e+01       7.63823e-04       5.70719e+02
  4.800      2.59711e+02       4.24461e-01      -1.20365e+01       7.55721e-04       5.63292e+02
  4.900      2.59114e+02       2.13033e-01      -1.22185e+01       7.47579e-04       5.55944e+02
  5.000      2.58543e+02      -1.13278e-03      -1.24298e+01       7.39435e-04       5.48674e+02
  5.100      2.57986e+02      -2.17714e-01      -1.26722e+01       7.31318e-04       5.41483e+02
  5.200      2.57440e+02      -4.22746e-01      -1.29421e+01       7.23241e-04       5.34369e+02
  5.300      2.56902e+02      -6.00317e-01      -1.32349e+01       7.15214e-04       5.27334e+02
  5.400      2.56369e+02      -7.34805e-01      -1.35460e+01       7.07246e-04       5.20377e+02
  5.500      2.55837e+02      -8.14034e-01      -1.38689e+01       6.99349e-04       5.13498e+02
  5.600      2.55300e+02      -8.28051e-01      -1.41955e+01       6.91537e-04       5.06697e+02
  5.700      2.54754e+02      -7.66939e-01      -1.45177e+01       6.83822e-04       4.99973e+02
  5.800      2.54194e+02      -6.23272e-01      -1.48290e+01       6.76217e-04       4.93325e+02
  5.900      2.53612e+02      -3.99457e-01      -1.51283e+01       6.68737e-04       4.86751e+02
  6.000      2.53001e+02      -1.00332e-01      -1.54159e+01       6.61396e-04       4.80249e+02
  6.100      2.52355e+02       2.69246e-01      -1.56922e+01       6.54210e-04       4.73817e+02
  6.200      2.51668e+02       6.99102e-01      -1.59583e+01       6.47182e-04       4.67452e+02
  6.300      2.50949e+02       1.16667e+00      -1.62173e+01       6.40293e-04       4.61154e+02
  6.400      2.50205e+02       1.64763e+00      -1.64726e+01       6.33521e-04       4.54923e+02
  6.500      2.49443e+02       2.11767e+00      -1.67277e+01       6.26845e-04       4.48760e+02
  6.600      2.48672e+02       2.55893e+00      -1.69803e+01       6.20247e-04       4.42663e+02
  6.700      2.47895e+02       2.96776e+00      -1.72166e+01       6.13713e-04       4.36631e+02
  6.800      2.47117e+02       3.34243e+00      -1.74207e+01       6.07231e-04       4.30664e+02
  6.900      2.46342e+02       3.68122e+00      -1.75771e+01       6.00791e-04       4.24760e+02
  7.000      2.45573e+02       3.98478e+00      -1.76746e+01       5.94384e-04       4.18918e+02
  7.100      2.44807e+02       4.26218e+00      -1.77180e+01       5.88018e-04       4.13139e+02
  7.200      2.44039e+02       4.52440e+00      -1.77156e+01       5.81704e-04       4.07421e+02
  7.300      2.43266e+02       4.78237e+00      -1.76757e+01       5.75451e-04       4.01764e+02
  7.400      2.42482e+02       5.04620e+00      -1.76066e+01       5.69270e-04       3.96168e+02
  7.500      2.41686e+02       5.31688e+00      -1.75138e+01       5.63163e-04       3.90632e+02
  7.600      2.40879e+02       5.58977e+00      -1.74020e+01       5.57130e-04       3.85156e+02
  7.700      2.40059e+02       5.86017e+00      -1.72753e+01       5.51169e-04       3.79739e+02
  7.800      2.39227e+02       6.12339e+00      -1.71382e+01       5.45279e-04       3.74379e+02
  7.900      2.38384e+02       6.37033e+00      -1.69938e+01       5.39458e-04       3.69077e+02
  8.000      2.37535e+02       6.57954e+00      -1.68416e+01       5.33693e-04       3.63832e+02
  8.100      2.36684e+02       6.72738e+00      -1.66806e+01       5.27973e-04       3.58644e+02
  8.200      2.35838e+02       6.79020e+00      -1.65095e+01       5.22285e-04       3.53512e+02
  8.300      2.35001e+02       6.74467e+00      -1.63274e+01       5.16618e-04       3.48435e+02
  8.400      2.34176e+02       6.58810e+00      -1.61336e+01       5.10969e-04       3.43415e+02
  8.500      2.33356e+02       6.35199e+00      -1.59283e+01       5.05349e-04       3.38449e+02
  8.600      2.32537e+02       6.07105e+00      -1.57118e+01       4.99770e-04       3.33538e+02
  8.700      2.31713e+02       5.77997e+00      -1.54842e+01       4.94244e-04       3.28681e+02
  8.800      2.30879e+02       5.51341e+00      -1.52458e+01       4.88781e-04       3.23878e+02
  8.900      2.30030e+02       5.29932e+00      -1.50022e+01       4.83390e-04       3.19127e+02
  9.000      2.29165e+02       5.15212e+00      -1.47693e+01       4.78072e-04       3.14429e+02
  9.100      2.28283e+02       5.08456e+00      -1.45644e+01       4.72827e-04       3.09783e+02
  9.200      2.27383e+02       5.10940e+00      -1.44048e+01       4.67655e-04       3.05187e+02
  9.300      2.26465e+02       5.23941e+00      -1.43078e+01       4.62558e-04       3.00642e+02
  9.400      2.25529e+02       5.48400e+00      -1.42883e+01       4.57533e-04       2.96146e+02
  9.500      2.24582e+02       5.83195e+00      -1.43469e+01       4.52563e-04       2.91699e+02
  9.600      2.23635e+02       6.26420e+00      -1.44788e+01       4.47627e-04       2.87302e+02
  9.700      2.22699e+02       6.76165e+00      -1.46792e+01       4.42704e-04       2.82953e+02
  9.800      2.21786e+02       7.30524e+00      -1.49431e+01       4.37773e-04       2.78653e+02
  9.900      2.20905e+02       7.87588e+00      -1.52657e+01       4.32814e-04       2.74402e+02
 10.000      2.20063e+02       8.45414e+00      -1.56376e+01       4.27816e-04       2.70200e+02
 10.100      2.19256e+02       9.01966e+00      -1.60368e+01       4.22790e-04       2.66046e+02
 10.200      2.18478e+02       9.55196e+00      -1.64398e+01       4.17748e-04       2.61942e+02
 10.300      2.17724e+02       1.00305e+01      -1.68226e+01       4.12705e-04       2.57886e+02
 10.400      2.16987e+02       1.04349e+01      -1.71617e+01       4.07672e-04       2.53879e+02
 10.500      2.16261e+02       1.07445e+01      -1.74332e+01       4.02663e-04       2.49921e+02
 10.600      2.15543e+02       1.09435e+01      -1.76212e+01       3.97686e-04       2.46012e+02
 10.700      2.14834e+02       1.10334e+01      -1.77393e+01       3.92739e-04       2.42152e+02
 10.800      2.14136e+02       1.10197e+01      -1.78083e+01       3.87816e-04       2.38341e+02
 10.900      2.13454e+02       1.09080e+01      -1.78485e+01       3.82913e-04       2.34577e+02
 11.000      2.12789e+02       1.07040e+01      -1.78807e+01       3.78026e-04       2.30862e+02
 11.100      2.12145e+02       1.04131e+01      -1.79255e+01       3.73149e-04       2.27194e+02
 11.200      2.11526e+02       1.00413e+01      -1.80027e+01       3.68278e-04       2.23574e+02
 11.300      2.10934e+02       9.60747e+00      -1.81095e+01       3.63409e-04       2.20001e+02
 11.400      2.10375e+02       9.14736e+00      -1.82127e+01       3.58535e-04       2.16475e+02
 11.500      2.09854e+02       8.69800e+00      -1.82768e+01       3.53652e-04       2.12998e+02
 11.600      2.09375e+02       8.29638e+00      -1.82667e+01       3.48754e-04       2.09569e+02
 11.700      2.08945e+02       7.97950e+00      -1.81469e+01       3.43835e-04       2.06188e+02
 11.800      2.08566e+02       7.78437e+00      -1.78823e+01       3.38893e-04       2.02856e+02
 11.900      2.08245e+02       7.74794e+00      -1.74376e+01       3.33921e-04       1.99573e+02
 12.000      2.07985e+02       7.89134e+00      -1.67999e+01       3.28920e-04       1.96338e+02
 12.100      2.07785e+02       8.19270e+00      -1.60174e+01       3.23895e-04       1.93153e+02
 12.200      2.07643e+02       8.62288e+00      -1.51483e+01       3.18853e-04       1.90016e+02
 12.300      2.07558e+02       9.15277e+00      -1.42510e+01       3.13801e-04       1.86928e+02
 12.400      2.07527e+02       9.75324e+00      -1.33838e+01       3.08745e-04       1.83889e+02
 12.500      2.07549e+02       1.03952e+01      -1.26050e+01       3.03692e-04       1.80899e+02
 12.600      2.07622e+02       1.10495e+01      -1.19730e+01       2.98648e-04       1.77957e+02
 12.700      2.07745e+02       1.16870e+01      -1.15462e+01       2.93619e-04       1.75064e+02
 12.800      2.07916e+02       1.22826e+01      -1.13670e+01       2.88611e-04       1.72219e+02
 12.900      2.08129e+02       1.28287e+01      -1.14112e+01       2.83634e-04       1.69423e+02
 13.000      2.08380e+02       1.33221e+01      -1.16362e+01       2.78696e-04       1.66675e+02
 13.100      2.08664e+02       1.37597e+01      -1.19998e+01       2.73808e-04       1.63975e+02
 13.200      2.08977e+02       1.41384e+01      -1.24594e+01       2.68978e-04       1.61323e+02
 13.300      2.09313e+02       1.44550e+01      -1.29727e+01       2.64212e-04       1.58720e+02
 13.400      2.09667e+02       1.47066e+01      -1.34973e+01       2.59520e-04       1.56164e+02
 13.500      2.10034e+02       1.48899e+01      -1.39907e+01       2.54906e-04       1.53657e+02
 13.600      2.10410e+02       1.50019e+01      -1.44107e+01       2.50377e-04       1.51197e+02
 13.700      2.10790e+02       1.50397e+01      -1.47159e+01       2.45939e-04       1.48785e+02
 13.800      2.11167e+02       1.50066e+01      -1.48916e+01       2.41595e-04       1.46419e+02
 13.900      2.11538e+02       1.49119e+01      -1.49492e+01       2.37346e-04       1.44096e+02
 14.000      2.11896e+02       1.47652e+01      -1.49013e+01       2.33192e-04       1.41814e+02
 14.100      2.12237e+02       1.45761e+01      -1.47601e+01       2.29136e-04       1.39571e+02
 14.200      2.12554e+02       1.43540e+01      -1.45382e+01       2.25176e-04       1.37364e+02
 14.300      2.12843e+02       1.41086e+01      -1.42480e+01       2.21314e-04       1.35192e+02
 14.400      2.13098e+02       1.38494e+01      -1.39021e+01       2.17550e-04       1.33052e+02
 14.500      2.13314e+02       1.35860e+01      -1.35128e+01       2.13884e-04       1.30942e+02
 14.600      2.13485e+02       1.33279e+01      -1.30926e+01       2.10315e-04       1.28860e+02
 14.700      2.13605e+02       1.30847e+01      -1.26540e+01       2.06845e-04       1.26806e+02
 14.800      2.13671e+02       1.28659e+01      -1.22094e+01       2.03472e-04       1.24776e+02
 14.900      2.13678e+02       1.26783e+01      -1.17688e+01       2.00196e-04       1.22771e+02
 15.000      2.13632e+02       1.25203e+01      -1.13347e+01       1.97010e-04       1.20791e+02
 15.100      2.13538e+02       1.23889e+01      -1.09083e+01       1.93909e-04       1.18838e+02
 15.200      2.13403e+02       1.22812e+01      -1.04910e+01       1.90888e-04       1.16913e+02
 15.300      2.13234e+02       1.21942e+01      -1.00839e+01       1.87940e-04       1.15016e+02
 15.400      2.13036e+02       1.21247e+01      -9.68841e+00       1.85062e-04       1.13149e+02
 15.500      2.12815e+02       1.20700e+01      -9.30569e+00       1.82248e-04       1.11313e+02
 15.600      2.12577e+02       1.20270e+01      -8.93702e+00       1.79494e-04       1.09509e+02
 15.700      2.12330e+02       1.19926e+01      -8.58365e+00       1.76795e-04       1.07736e+02
 15.800      2.12078e+02       1.19639e+01      -8.24684e+00       1.74147e-04       1.05997e+02
 15.900      2.11829e+02       1.19379e+01      -7.92785e+00       1.71547e-04       1.04292e+02
 16.000      2.11587e+02       1.19117e+01      -7.62792e+00       1.68990e-04       1.02620e+02
 16.100      2.11360e+02       1.18821e+01      -7.34833e+00       1.66473e-04       1.00983e+02
 16.200      2.11154e+02       1.18464e+01      -7.09029e+00       1.63992e-04       9.93813e+01
 16.300      2.10971e+02       1.18028e+01      -6.85410e+00       1.61546e-04       9.78140e+01
 16.400      2.10811e+02       1.17518e+01      -6.63871e+00       1.59132e-04       9.62795e+01
 16.500      2.10673e+02       1.16938e+01      -6.44305e+00       1.56751e-04       9.47764e+01
 16.600      2.10555e+02       1.16293e+01      -6.26601e+00       1.54400e-04       9.33029e+01
 16.700      2.10457e+02       1.15587e+01      -6.10648e+00       1.52079e-04       9.18578e+01
 16.800      2.10377e+02       1.14825e+01      -5.96336e+00       1.49788e-04       9.04395e+01
 16.900      2.10315e+02       1.14011e+01      -5.83555e+00       1.47525e-04       8.90467e+01
 17.000      2.10269e+02       1.13151e+01      -5.72194e+00       1.45289e-04       8.76782e+01
 17.100      2.10239e+02       1.12249e+01      -5.62144e+00       1.43081e-04       8.63327e+01
 17.200      2.10222e+02       1.11309e+01      -5.53294e+00       1.40898e-04       8.50091e+01
 17.300      2.10219e+02       1.10336e+01      -5.45535e+00       1.38741e-04       8.37062e+01
 17.400      2.10227e+02       1.09335e+01      -5.38755e+00       1.36608e-04       8.24230e+01
 17.500      2.10247e+02       1.08311e+01      -5.32844e+00       1.34500e-04       8.11585e+01
 17.600      2.10276e+02       1.07267e+01      -5.27693e+00       1.32416e-04       7.99116e+01
 17.700      2.10314e+02       1.06210e+01      -5.23191e+00       1.30354e-04       7.86816e+01
 17.800      2.10359e+02       1.05142e+01      -5.19228e+00       1.28315e-04       7.74676e+01
 17.900      2.10411e+02       1.04069e+01      -5.15693e+00       1.26298e-04       7.62686e+01
 18.000      2.10469e+02       1.02996e+01      -5.12477e+00       1.24302e-04       7.50839e+01
 18.100      2.10530e+02       1.01927e+01      -5.09469e+00       1.22327e-04       7.39128e+01
 18.200      2.10595e+02       1.00867e+01      -5.06559e+00       1.20373e-04       7.27546e+01
 18.300      2.10663e+02       9.98201e+00      -5.03637e+00       1.18439e-04       7.16086e+01
 18.400      2.10731e+02       9.87914e+00      -5.00592e+00       1.16525e-04       7.04742e+01
 18.500      2.10800e+02       9.77851e+00      -4.97318e+00       1.14630e-04       6.93508e+01
 18.600      2.10868e+02       9.68023e+00      -4.93774e+00       1.12756e-04       6.82386e+01
 18.700      2.10935e+02       9.58412e+00      -4.89973e+00       1.10902e-04       6.71381e+01
 18.800      2.11002e+02       9.48999e+00      -4.85926e+00       1.09070e-04       6.60500e+01
 18.900      2.11069e+02       9.39765e+00      -4.81648e+00       1.07260e-04       6.49748e+01
 19.000      2.11135e+02       9.30692e+00      -4.77152e+00       1.05475e-04       6.39131e+01
 19.100      2.11200e+02       9.21761e+00      -4.72452e+00       1.03713e-04       6.28652e+01
 19.200      2.11264e+02       9.12954e+00      -4.67560e+00       1.01977e-04       6.18316e+01
 19.300      2.11328e+02       9.04251e+00      -4.62489e+00       1.00266e-04       6.08128e+01
 19.400      2.11392e+02       8.95634e+00      -4.57255e+00       9.85818e-05       5.98090e+01
 19.500      2.11454e+02       8.87083e+00      -4.51868e+00       9.69241e-05       5.88207e+01
 19.600      2.11516e+02       8.78582e+00      -4.46344e+00       9.52936e-05       5.78480e+01
 19.700      2.11577e+02       8.70110e+00      -4.40695e+00       9.36906e-05       5.68913e+01
 19.800      2.11637e+02       8.61650e+00      -4.34935e+00       9.21157e-05       5.59508e+01
 19.900      2.11696e+02       8.53182e+00      -4.29076e+00       9.05690e-05       5.50267e+01
 20.000      2.11754e+02       8.44688e+00      -4.23133e+00       8.90509e-05       5.41192e+01
 20.100      2.11811e+02       8.36148e+00      -4.17119e+00       8.75615e-05       5.32285e+01
 20.200      2.11868e+02       8.27545e+00      -4.11046e+00       8.61010e-05       5.23546e+01
 20.300      2.11923e+02       8.18860e+00      -4.04929e+00       8.46697e-05       5.14977e+01
