# Data Source: NASA GEOS5 Near-Real-Time
# Model Time = 2010-07-13 18:00:00
# Location = [  39.7393, -104.9900 ]
# Fields = [ Z(km), T(K), U(m/s), V(m/s), R(g/cm3), P(mbar) ]
# Ground Height = 1.589
  0.000      3.15535e+02       1.91647e+00       3.92397e+00       1.11064e-03       1.00578e+03
  0.100      3.14919e+02       1.88465e+00       3.89122e+00       1.09980e-03       9.94021e+02
  0.200      3.14303e+02       1.85504e+00       3.86480e+00       1.08909e-03       9.82411e+02
  0.300      3.13687e+02       1.83196e+00       3.85685e+00       1.07851e-03       9.70963e+02
  0.400      3.13068e+02       1.81808e+00       3.86541e+00       1.06809e-03       9.59682e+02
  0.500      3.12437e+02       1.81365e+00       3.86792e+00       1.05784e-03       9.48558e+02
  0.600      3.11791e+02       1.81740e+00       3.85133e+00       1.04777e-03       9.37584e+02
  0.700      3.11147e+02       1.82456e+00       3.83288e+00       1.03782e-03       9.26760e+02
  0.800      3.10518e+02       1.83125e+00       3.83236e+00       1.02794e-03       9.16087e+02
  0.900      3.09886e+02       1.84387e+00       3.85235e+00       1.01820e-03       9.05562e+02
  1.000      3.09220e+02       1.87230e+00       3.88844e+00       1.00870e-03       8.95181e+02
  1.100      3.08527e+02       1.90902e+00       3.93371e+00       9.99399e-04       8.84941e+02
  1.200      3.07862e+02       1.92751e+00       3.97861e+00       9.90127e-04       8.74841e+02
  1.300      3.07257e+02       1.90969e+00       4.01459e+00       9.80779e-04       8.64879e+02
  1.400      3.06664e+02       1.87338e+00       4.03764e+00       9.71512e-04       8.55053e+02
  1.500      3.06016e+02       1.84471e+00       4.04511e+00       9.62533e-04       8.45360e+02
  1.600      3.05289e+02       1.84341e+00       4.04266e+00       9.53908e-04       8.35795e+02
  1.700      3.04504e+02       1.88248e+00       4.04466e+00       9.45564e-04       8.26353e+02
  1.800      3.03682e+02       1.97085e+00       4.06180e+00       9.37423e-04       8.17028e+02
  1.900      3.02835e+02       2.09420e+00       4.07940e+00       9.29438e-04       8.07807e+02
  2.000      3.01968e+02       2.22930e+00       4.07309e+00       9.21569e-04       7.98677e+02
  2.100      3.01091e+02       2.36094e+00       4.02731e+00       9.13783e-04       7.89629e+02
  2.200      3.00213e+02       2.49484e+00       3.94947e+00       9.06053e-04       7.80665e+02
  2.300      2.99342e+02       2.63995e+00       3.85071e+00       8.98355e-04       7.71787e+02
  2.400      2.98482e+02       2.79949e+00       3.74346e+00       8.90683e-04       7.62997e+02
  2.500      2.97625e+02       2.96847e+00       3.64204e+00       8.83058e-04       7.54295e+02
  2.600      2.96764e+02       3.14172e+00       3.56045e+00       8.75504e-04       7.45677e+02
  2.700      2.95889e+02       3.32368e+00       3.50308e+00       8.68041e-04       7.37143e+02
  2.800      2.94994e+02       3.52841e+00       3.46473e+00       8.60690e-04       7.28688e+02
  2.900      2.94069e+02       3.76960e+00       3.43946e+00       8.53469e-04       7.20310e+02
  3.000      2.93117e+02       4.04750e+00       3.41517e+00       8.46370e-04       7.12005e+02
  3.100      2.92145e+02       4.35091e+00       3.37454e+00       8.39365e-04       7.03771e+02
  3.200      2.91162e+02       4.66825e+00       3.30049e+00       8.32427e-04       6.95604e+02
  3.300      2.90173e+02       4.98802e+00       3.18379e+00       8.25536e-04       6.87504e+02
  3.400      2.89182e+02       5.29875e+00       3.02224e+00       8.18686e-04       6.79471e+02
  3.500      2.88193e+02       5.58921e+00       2.81424e+00       8.11868e-04       6.71506e+02
  3.600      2.87206e+02       5.85499e+00       2.56753e+00       8.05075e-04       6.63609e+02
  3.700      2.86224e+02       6.09965e+00       2.30085e+00       7.98306e-04       6.55778e+02
  3.800      2.85246e+02       6.32721e+00       2.03350e+00       7.91558e-04       6.48014e+02
  3.900      2.84275e+02       6.54030e+00       1.78066e+00       7.84828e-04       6.40316e+02
  4.000      2.83311e+02       6.73892e+00       1.54959e+00       7.78110e-04       6.32684e+02
  4.100      2.82359e+02       6.92279e+00       1.34666e+00       7.71398e-04       6.25119e+02
  4.200      2.81420e+02       7.09276e+00       1.17773e+00       7.64690e-04       6.17620e+02
  4.300      2.80489e+02       7.25451e+00       1.04660e+00       7.57994e-04       6.10188e+02
  4.400      2.79562e+02       7.41498e+00       9.56482e-01       7.51324e-04       6.02820e+02
  4.500      2.78635e+02       7.58090e+00       9.10060e-01       7.44690e-04       5.95516e+02
  4.600      2.77706e+02       7.75617e+00       9.02268e-01       7.38096e-04       5.88275e+02
  4.700      2.76776e+02       7.94260e+00       9.22308e-01       7.31541e-04       5.81098e+02
  4.800      2.75846e+02       8.14196e+00       9.59269e-01       7.25024e-04       5.73985e+02
  4.900      2.74916e+02       8.35246e+00       1.01182e+00       7.18542e-04       5.66936e+02
  5.000      2.73987e+02       8.56300e+00       1.10378e+00       7.12096e-04       5.59951e+02
  5.100      2.73058e+02       8.76100e+00       1.26299e+00       7.05686e-04       5.53029e+02
  5.200      2.72131e+02       8.93478e+00       1.51574e+00       6.99310e-04       5.46172e+02
  5.300      2.71213e+02       9.08861e+00       1.86004e+00       6.92950e-04       5.39379e+02
  5.400      2.70317e+02       9.24044e+00       2.26968e+00       6.86572e-04       5.32649e+02
  5.500      2.69455e+02       9.40867e+00       2.71769e+00       6.80145e-04       5.25981e+02
  5.600      2.68640e+02       9.60923e+00       3.18055e+00       6.73641e-04       5.19375e+02
  5.700      2.67874e+02       9.84261e+00       3.65638e+00       6.67056e-04       5.12832e+02
  5.800      2.67156e+02       1.01033e+01       4.15170e+00       6.60397e-04       5.06352e+02
  5.900      2.66486e+02       1.03859e+01       4.67302e+00       6.53669e-04       4.99937e+02
  6.000      2.65862e+02       1.06817e+01       5.22024e+00       6.46883e-04       4.93587e+02
  6.100      2.65275e+02       1.09701e+01       5.76752e+00       6.40063e-04       4.87304e+02
  6.200      2.64714e+02       1.12276e+01       6.28277e+00       6.33235e-04       4.81088e+02
  6.300      2.64171e+02       1.14306e+01       6.73392e+00       6.26425e-04       4.74938e+02
  6.400      2.63638e+02       1.15654e+01       7.10014e+00       6.19654e-04       4.68855e+02
  6.500      2.63111e+02       1.16568e+01       7.40434e+00       6.12927e-04       4.62838e+02
  6.600      2.62590e+02       1.17384e+01       7.68005e+00       6.06244e-04       4.56886e+02
  6.700      2.62074e+02       1.18443e+01       7.96077e+00       5.99606e-04       4.50996e+02
  6.800      2.61562e+02       1.20049e+01       8.27415e+00       5.93015e-04       4.45167e+02
  6.900      2.61045e+02       1.22287e+01       8.60827e+00       5.86492e-04       4.39400e+02
  7.000      2.60511e+02       1.25148e+01       8.93495e+00       5.80064e-04       4.33696e+02
  7.100      2.59949e+02       1.28623e+01       9.22595e+00       5.73757e-04       4.28053e+02
  7.200      2.59346e+02       1.32701e+01       9.45355e+00       5.67595e-04       4.22474e+02
  7.300      2.58700e+02       1.37227e+01       9.60555e+00       5.61582e-04       4.16957e+02
  7.400      2.58018e+02       1.41893e+01       9.68719e+00       5.55697e-04       4.11500e+02
  7.500      2.57306e+02       1.46378e+01       9.70468e+00       5.49922e-04       4.06100e+02
  7.600      2.56571e+02       1.50365e+01       9.66418e+00       5.44238e-04       4.00755e+02
  7.700      2.55821e+02       1.53575e+01       9.57006e+00       5.38626e-04       3.95463e+02
  7.800      2.55061e+02       1.55983e+01       9.41546e+00       5.33075e-04       3.90224e+02
  7.900      2.54294e+02       1.57658e+01       9.18922e+00       5.27576e-04       3.85039e+02
  8.000      2.53527e+02       1.58668e+01       8.88020e+00       5.22122e-04       3.79907e+02
  8.100      2.52762e+02       1.59083e+01       8.47724e+00       5.16701e-04       3.74829e+02
  8.200      2.52004e+02       1.59010e+01       7.97852e+00       5.11308e-04       3.69805e+02
  8.300      2.51258e+02       1.58688e+01       7.41586e+00       5.05935e-04       3.64834e+02
  8.400      2.50525e+02       1.58387e+01       6.82872e+00       5.00575e-04       3.59917e+02
  8.500      2.49811e+02       1.58374e+01       6.25653e+00       4.95222e-04       3.55053e+02
  8.600      2.49117e+02       1.58921e+01       5.73872e+00       4.89870e-04       3.50241e+02
  8.700      2.48447e+02       1.60241e+01       5.30553e+00       4.84516e-04       3.45481e+02
  8.800      2.47795e+02       1.62290e+01       4.94429e+00       4.79171e-04       3.40772e+02
  8.900      2.47154e+02       1.64953e+01       4.62987e+00       4.73848e-04       3.36115e+02
  9.000      2.46517e+02       1.68109e+01       4.33713e+00       4.68562e-04       3.31510e+02
  9.100      2.45878e+02       1.71643e+01       4.04094e+00       4.63327e-04       3.26955e+02
  9.200      2.45229e+02       1.75439e+01       3.71771e+00       4.58153e-04       3.22452e+02
  9.300      2.44568e+02       1.79451e+01       3.36986e+00       4.53046e-04       3.17998e+02
  9.400      2.43897e+02       1.83688e+01       3.02169e+00       4.48003e-04       3.13595e+02
  9.500      2.43216e+02       1.88158e+01       2.69815e+00       4.43021e-04       3.09242e+02
  9.600      2.42526e+02       1.92874e+01       2.42422e+00       4.38096e-04       3.04937e+02
  9.700      2.41828e+02       1.97844e+01       2.22486e+00       4.33227e-04       3.00680e+02
  9.800      2.41124e+02       2.03060e+01       2.11937e+00       4.28410e-04       2.96471e+02
  9.900      2.40417e+02       2.08388e+01       2.09015e+00       4.23639e-04       2.92310e+02
 10.000      2.39709e+02       2.13640e+01       2.10476e+00       4.18909e-04       2.88195e+02
 10.100      2.39005e+02       2.18634e+01       2.13075e+00       4.14212e-04       2.84127e+02
 10.200      2.38308e+02       2.23182e+01       2.13566e+00       4.09543e-04       2.80105e+02
 10.300      2.37622e+02       2.27099e+01       2.08700e+00       4.04895e-04       2.76128e+02
 10.400      2.36949e+02       2.30224e+01       1.95592e+00       4.00264e-04       2.72197e+02
 10.500      2.36287e+02       2.32623e+01       1.74879e+00       3.95655e-04       2.68311e+02
 10.600      2.35629e+02       2.34491e+01       1.49202e+00       3.91079e-04       2.64469e+02
 10.700      2.34969e+02       2.36026e+01       1.21225e+00       3.86546e-04       2.60672e+02
 10.800      2.34302e+02       2.37425e+01       9.36092e-01       3.82065e-04       2.56918e+02
 10.900      2.33620e+02       2.38886e+01       6.90202e-01       3.77647e-04       2.53208e+02
 11.000      2.32917e+02       2.40606e+01       5.01190e-01       3.73300e-04       2.49541e+02
 11.100      2.32191e+02       2.42715e+01       3.86588e-01       3.69030e-04       2.45917e+02
 11.200      2.31443e+02       2.45160e+01       3.38845e-01       3.64828e-04       2.42335e+02
 11.300      2.30680e+02       2.47855e+01       3.46130e-01       3.60688e-04       2.38793e+02
 11.400      2.29904e+02       2.50714e+01       3.96610e-01       3.56599e-04       2.35293e+02
 11.500      2.29121e+02       2.53653e+01       4.78453e-01       3.52554e-04       2.31832e+02
 11.600      2.28335e+02       2.56586e+01       5.79827e-01       3.48546e-04       2.28410e+02
 11.700      2.27551e+02       2.59427e+01       6.88898e-01       3.44566e-04       2.25026e+02
 11.800      2.26772e+02       2.62092e+01       7.95178e-01       3.40609e-04       2.21680e+02
 11.900      2.25995e+02       2.64502e+01       8.93669e-01       3.36679e-04       2.18372e+02
 12.000      2.25218e+02       2.66577e+01       9.80780e-01       3.32782e-04       2.15102e+02
 12.100      2.24437e+02       2.68239e+01       1.05292e+00       3.28922e-04       2.11870e+02
 12.200      2.23648e+02       2.69410e+01       1.10650e+00       3.25106e-04       2.08675e+02
 12.300      2.22848e+02       2.70010e+01       1.13793e+00       3.21337e-04       2.05518e+02
 12.400      2.22033e+02       2.69961e+01       1.14361e+00       3.17621e-04       2.02399e+02
 12.500      2.21201e+02       2.69184e+01       1.11998e+00       3.13962e-04       1.99318e+02
 12.600      2.20350e+02       2.67679e+01       1.06542e+00       3.10360e-04       1.96273e+02
 12.700      2.19490e+02       2.65603e+01       9.82460e-01       3.06803e-04       1.93266e+02
 12.800      2.18627e+02       2.63134e+01       8.74158e-01       3.03277e-04       1.90294e+02
 12.900      2.17772e+02       2.60452e+01       7.43566e-01       2.99770e-04       1.87358e+02
 13.000      2.16932e+02       2.57735e+01       5.93731e-01       2.96269e-04       1.84455e+02
 13.100      2.16116e+02       2.55161e+01       4.27707e-01       2.92762e-04       1.81587e+02
 13.200      2.15333e+02       2.52910e+01       2.48547e-01       2.89239e-04       1.78752e+02
 13.300      2.14591e+02       2.51159e+01       5.92974e-02       2.85688e-04       1.75949e+02
 13.400      2.13899e+02       2.50066e+01      -1.36929e-01       2.82100e-04       1.73178e+02
 13.500      2.13257e+02       2.49541e+01      -3.36358e-01       2.78475e-04       1.70440e+02
 13.600      2.12662e+02       2.49331e+01      -5.34766e-01       2.74821e-04       1.67735e+02
 13.700      2.12113e+02       2.49178e+01      -7.27924e-01       2.71148e-04       1.65065e+02
 13.800      2.11604e+02       2.48825e+01      -9.11605e-01       2.67461e-04       1.62430e+02
 13.900      2.11135e+02       2.48018e+01      -1.08158e+00       2.63769e-04       1.59833e+02
 14.000      2.10700e+02       2.46497e+01      -1.23362e+00       2.60078e-04       1.57272e+02
 14.100      2.10298e+02       2.44008e+01      -1.36349e+00       2.56396e-04       1.54750e+02
 14.200      2.09926e+02       2.40293e+01      -1.46697e+00       2.52729e-04       1.52266e+02
 14.300      2.09579e+02       2.35095e+01      -1.53983e+00       2.49083e-04       1.49822e+02
 14.400      2.09257e+02       2.28269e+01      -1.57918e+00       2.45464e-04       1.47417e+02
 14.500      2.08956e+02       2.20022e+01      -1.58647e+00       2.41870e-04       1.45050e+02
 14.600      2.08678e+02       2.10631e+01      -1.56397e+00       2.38302e-04       1.42720e+02
 14.700      2.08420e+02       2.00375e+01      -1.51400e+00       2.34760e-04       1.40425e+02
 14.800      2.08182e+02       1.89533e+01      -1.43884e+00       2.31243e-04       1.38163e+02
 14.900      2.07964e+02       1.78384e+01      -1.34081e+00       2.27750e-04       1.35934e+02
 15.000      2.07764e+02       1.67204e+01      -1.22219e+00       2.24283e-04       1.33736e+02
 15.100      2.07581e+02       1.56273e+01      -1.08528e+00       2.20839e-04       1.31567e+02
 15.200      2.07415e+02       1.45869e+01      -9.32384e-01       2.17420e-04       1.29426e+02
 15.300      2.07265e+02       1.36270e+01      -7.65796e-01       2.14025e-04       1.27313e+02
 15.400      2.07131e+02       1.27755e+01      -5.87816e-01       2.10654e-04       1.25226e+02
 15.500      2.07010e+02       1.20553e+01      -4.00603e-01       2.07307e-04       1.23165e+02
 15.600      2.06904e+02       1.14624e+01      -2.05577e-01       2.03987e-04       1.21130e+02
 15.700      2.06813e+02       1.09835e+01      -3.89459e-03       2.00696e-04       1.19124e+02
 15.800      2.06736e+02       1.06053e+01       2.03290e-01       1.97438e-04       1.17146e+02
 15.900      2.06675e+02       1.03142e+01       4.14815e-01       1.94214e-04       1.15200e+02
 16.000      2.06630e+02       1.00970e+01       6.29528e-01       1.91028e-04       1.13285e+02
 16.100      2.06600e+02       9.94036e+00       8.46270e-01       1.87881e-04       1.11403e+02
 16.200      2.06587e+02       9.83082e+00       1.06388e+00       1.84776e-04       1.09554e+02
 16.300      2.06589e+02       9.75506e+00       1.28121e+00       1.81714e-04       1.07741e+02
 16.400      2.06609e+02       9.69971e+00       1.49709e+00       1.78698e-04       1.05962e+02
 16.500      2.06646e+02       9.65141e+00       1.71038e+00       1.75729e-04       1.04220e+02
 16.600      2.06700e+02       9.59678e+00       1.91991e+00       1.72808e-04       1.02514e+02
 16.700      2.06771e+02       9.52246e+00       2.12453e+00       1.69937e-04       1.00846e+02
 16.800      2.06860e+02       9.41539e+00       2.32309e+00       1.67117e-04       9.92153e+01
 16.900      2.06967e+02       9.26989e+00       2.51494e+00       1.64347e-04       9.76216e+01
 17.000      2.07091e+02       9.08802e+00       2.69990e+00       1.61627e-04       9.60631e+01
 17.100      2.07231e+02       8.87216e+00       2.87782e+00       1.58954e-04       9.45383e+01
 17.200      2.07386e+02       8.62473e+00       3.04856e+00       1.56327e-04       9.30455e+01
 17.300      2.07555e+02       8.34814e+00       3.21195e+00       1.53745e-04       9.15832e+01
 17.400      2.07738e+02       8.04477e+00       3.36786e+00       1.51205e-04       9.01498e+01
 17.500      2.07934e+02       7.71704e+00       3.51614e+00       1.48707e-04       8.87441e+01
 17.600      2.08141e+02       7.36735e+00       3.65663e+00       1.46250e-04       8.73646e+01
 17.700      2.08360e+02       6.99811e+00       3.78918e+00       1.43831e-04       8.60101e+01
 17.800      2.08589e+02       6.61172e+00       3.91365e+00       1.41450e-04       8.46795e+01
 17.900      2.08828e+02       6.21058e+00       4.02989e+00       1.39106e-04       8.33714e+01
 18.000      2.09075e+02       5.79709e+00       4.13775e+00       1.36797e-04       8.20848e+01
 18.100      2.09331e+02       5.37366e+00       4.23707e+00       1.34523e-04       8.08187e+01
 18.200      2.09593e+02       4.94269e+00       4.32772e+00       1.32282e-04       7.95720e+01
 18.300      2.09862e+02       4.50660e+00       4.40953e+00       1.30074e-04       7.83438e+01
 18.400      2.10136e+02       4.06777e+00       4.48236e+00       1.27896e-04       7.71331e+01
 18.500      2.10415e+02       3.62861e+00       4.54607e+00       1.25750e-04       7.59391e+01
 18.600      2.10698e+02       3.19153e+00       4.60049e+00       1.23633e-04       7.47609e+01
 18.700      2.10984e+02       2.75893e+00       4.64549e+00       1.21544e-04       7.35978e+01
 18.800      2.11272e+02       2.33322e+00       4.68092e+00       1.19484e-04       7.24491e+01
 18.900      2.11561e+02       1.91680e+00       4.70661e+00       1.17451e-04       7.13138e+01
 19.000      2.11852e+02       1.51206e+00       4.72243e+00       1.15444e-04       7.01916e+01
 19.100      2.12142e+02       1.12115e+00       4.72829e+00       1.13463e-04       6.90817e+01
 19.200      2.12431e+02       7.44324e-01       4.72454e+00       1.11509e-04       6.79844e+01
 19.300      2.12719e+02       3.81101e-01       4.71172e+00       1.09582e-04       6.69001e+01
 19.400      2.13006e+02       3.09641e-02       4.69035e+00       1.07683e-04       6.58293e+01
 19.500      2.13290e+02      -3.06581e-01       4.66098e+00       1.05812e-04       6.47722e+01
 19.600      2.13573e+02      -6.32035e-01       4.62413e+00       1.03971e-04       6.37293e+01
 19.700      2.13852e+02      -9.45898e-01       4.58034e+00       1.02160e-04       6.27010e+01
 19.800      2.14127e+02      -1.24867e+00       4.53014e+00       1.00379e-04       6.16874e+01
 19.900      2.14399e+02      -1.54085e+00       4.47407e+00       9.86290e-05       6.06889e+01
 20.000      2.14666e+02      -1.82295e+00       4.41265e+00       9.69102e-05       5.97057e+01
 20.100      2.14929e+02      -2.09545e+00       4.34643e+00       9.52230e-05       5.87379e+01
 20.200      2.15186e+02      -2.35887e+00       4.27594e+00       9.35675e-05       5.77859e+01
 20.300      2.15438e+02      -2.61370e+00       4.20170e+00       9.19441e-05       5.68497e+01
