# Data Source: NASA GEOS5 Near-Real-Time
# Model Time = 2010-11-18 18:00:00
# Location = [  39.7393, -104.9900 ]
# Fields = [ Z(km), T(K), U(m/s), V(m/s), R(g/cm3), P(mbar) ]
# Ground Height = 1.589
  0.000      2.97615e+02       2.86662e+00       5.22620e+00       1.18712e-03       1.01398e+03
  0.100      2.96985e+02       2.87263e+00       5.23315e+00       1.17571e-03       1.00211e+03
  0.200      2.96357e+02       2.87871e+00       5.24277e+00       1.16442e-03       9.90386e+02
  0.300      2.95719e+02       2.88447e+00       5.24022e+00       1.15327e-03       9.78791e+02
  0.400      2.95062e+02       2.88956e+00       5.21267e+00       1.14229e-03       9.67321e+02
  0.500      2.94405e+02       2.89361e+00       5.16994e+00       1.13140e-03       9.55973e+02
  0.600      2.93787e+02       2.89622e+00       5.13601e+00       1.12047e-03       9.44743e+02
  0.700      2.93193e+02       2.89573e+00       5.12605e+00       1.10954e-03       9.33633e+02
  0.800      2.92550e+02       2.88916e+00       5.14538e+00       1.09889e-03       9.22648e+02
  0.900      2.91830e+02       2.87808e+00       5.18893e+00       1.08864e-03       9.11789e+02
  1.000      2.91092e+02       2.87399e+00       5.23031e+00       1.07854e-03       9.01049e+02
  1.100      2.90400e+02       2.88218e+00       5.24145e+00       1.06836e-03       8.90420e+02
  1.200      2.89759e+02       2.86773e+00       5.19968e+00       1.05808e-03       8.79905e+02
  1.300      2.89157e+02       2.78545e+00       5.08689e+00       1.04775e-03       8.69508e+02
  1.400      2.88561e+02       2.65396e+00       4.93936e+00       1.03750e-03       8.59228e+02
  1.500      2.87920e+02       2.55097e+00       4.84362e+00       1.02751e-03       8.49060e+02
  1.600      2.87219e+02       2.54167e+00       4.86522e+00       1.01781e-03       8.39000e+02
  1.700      2.86561e+02       2.64666e+00       5.00017e+00       1.00805e-03       8.29050e+02
  1.800      2.86062e+02       2.87445e+00       5.22781e+00       9.97822e-04       8.19210e+02
  1.900      2.85669e+02       3.17690e+00       5.47225e+00       9.87322e-04       8.09476e+02
  2.000      2.85197e+02       3.46105e+00       5.61389e+00       9.77187e-04       7.99844e+02
  2.100      2.84513e+02       3.66261e+00       5.55618e+00       9.67858e-04       7.90307e+02
  2.200      2.83691e+02       3.83116e+00       5.29487e+00       9.59062e-04       7.80862e+02
  2.300      2.82855e+02       4.04277e+00       4.84857e+00       9.50373e-04       7.71507e+02
  2.400      2.82066e+02       4.34540e+00       4.27678e+00       9.41583e-04       7.62239e+02
  2.500      2.81298e+02       4.74794e+00       3.69589e+00       9.32785e-04       7.53061e+02
  2.600      2.80523e+02       5.26140e+00       3.21866e+00       9.24076e-04       7.43974e+02
  2.700      2.79744e+02       5.95546e+00       2.86657e+00       9.15443e-04       7.34976e+02
  2.800      2.78986e+02       6.93783e+00       2.60181e+00       9.06798e-04       7.26064e+02
  2.900      2.78270e+02       8.28406e+00       2.38360e+00       8.98075e-04       7.17234e+02
  3.000      2.77590e+02       9.88077e+00       2.15986e+00       8.89297e-04       7.08489e+02
  3.100      2.76931e+02       1.15472e+01       1.87446e+00       8.80520e-04       6.99830e+02
  3.200      2.76282e+02       1.31415e+01       1.48712e+00       8.71779e-04       6.91259e+02
  3.300      2.75659e+02       1.46691e+01       1.01726e+00       8.63027e-04       6.82776e+02
  3.400      2.75082e+02       1.61700e+01       4.98360e-01       8.54203e-04       6.74381e+02
  3.500      2.74564e+02       1.76535e+01      -4.28265e-02       8.45272e-04       6.66073e+02
  3.600      2.74090e+02       1.90301e+01      -6.01126e-01       8.36282e-04       6.57851e+02
  3.700      2.73641e+02       2.01906e+01      -1.17568e+00       8.27294e-04       6.49714e+02
  3.800      2.73196e+02       2.10495e+01      -1.75965e+00       8.18370e-04       6.41662e+02
  3.900      2.72737e+02       2.16069e+01      -2.32469e+00       8.09570e-04       6.33696e+02
  4.000      2.72245e+02       2.18821e+01      -2.83757e+00       8.00950e-04       6.25816e+02
  4.100      2.71702e+02       2.18977e+01      -3.27086e+00       7.92556e-04       6.18022e+02
  4.200      2.71112e+02       2.16935e+01      -3.62854e+00       7.84371e-04       6.10312e+02
  4.300      2.70485e+02       2.13151e+01      -3.92532e+00       7.76359e-04       6.02681e+02
  4.400      2.69830e+02       2.08076e+01      -4.17514e+00       7.68486e-04       5.95126e+02
  4.500      2.69151e+02       2.02050e+01      -4.38214e+00       7.60741e-04       5.87645e+02
  4.600      2.68446e+02       1.95343e+01      -4.54380e+00       7.53125e-04       5.80239e+02
  4.700      2.67714e+02       1.88219e+01      -4.65750e+00       7.45642e-04       5.72907e+02
  4.800      2.66956e+02       1.80920e+01      -4.72450e+00       7.38286e-04       5.65648e+02
  4.900      2.66178e+02       1.73639e+01      -4.75287e+00       7.31039e-04       5.58463e+02
  5.000      2.65386e+02       1.66564e+01      -4.75137e+00       7.23883e-04       5.51350e+02
  5.100      2.64585e+02       1.59883e+01      -4.72784e+00       7.16800e-04       5.44308e+02
  5.200      2.63781e+02       1.53767e+01      -4.68365e+00       7.09776e-04       5.37336e+02
  5.300      2.62977e+02       1.48382e+01      -4.61732e+00       7.02798e-04       5.30432e+02
  5.400      2.62178e+02       1.43896e+01      -4.52735e+00       6.95852e-04       5.23596e+02
  5.500      2.61387e+02       1.40416e+01      -4.41346e+00       6.88934e-04       5.16826e+02
  5.600      2.60603e+02       1.37922e+01      -4.27800e+00       6.82046e-04       5.10123e+02
  5.700      2.59822e+02       1.36379e+01      -4.12370e+00       6.75197e-04       5.03487e+02
  5.800      2.59043e+02       1.35749e+01      -3.95335e+00       6.68392e-04       4.96919e+02
  5.900      2.58267e+02       1.35962e+01      -3.77259e+00       6.61630e-04       4.90418e+02
  6.000      2.57496e+02       1.36915e+01      -3.59007e+00       6.54906e-04       4.83984e+02
  6.100      2.56732e+02       1.38500e+01      -3.41461e+00       6.48211e-04       4.77615e+02
  6.200      2.55978e+02       1.40616e+01      -3.25479e+00       6.41539e-04       4.71310e+02
  6.300      2.55233e+02       1.43208e+01      -3.11548e+00       6.34890e-04       4.65069e+02
  6.400      2.54497e+02       1.46264e+01      -2.99858e+00       6.28272e-04       4.58893e+02
  6.500      2.53766e+02       1.49774e+01      -2.90593e+00       6.21691e-04       4.52782e+02
  6.600      2.53038e+02       1.53721e+01      -2.83934e+00       6.15153e-04       4.46736e+02
  6.700      2.52313e+02       1.58030e+01      -2.80059e+00       6.08662e-04       4.40755e+02
  6.800      2.51589e+02       1.62569e+01      -2.79141e+00       6.02219e-04       4.34838e+02
  6.900      2.50865e+02       1.67204e+01      -2.81352e+00       5.95826e-04       4.28984e+02
  7.000      2.50139e+02       1.71801e+01      -2.86865e+00       5.89485e-04       4.23191e+02
  7.100      2.49411e+02       1.76273e+01      -2.95751e+00       5.83198e-04       4.17459e+02
  7.200      2.48678e+02       1.80610e+01      -3.07920e+00       5.76973e-04       4.11788e+02
  7.300      2.47936e+02       1.84806e+01      -3.23267e+00       5.70815e-04       4.06178e+02
  7.400      2.47183e+02       1.88859e+01      -3.41688e+00       5.64729e-04       4.00627e+02
  7.500      2.46417e+02       1.92777e+01      -3.63012e+00       5.58720e-04       3.95136e+02
  7.600      2.45637e+02       1.96650e+01      -3.86708e+00       5.52789e-04       3.89703e+02
  7.700      2.44842e+02       2.00594e+01      -4.12118e+00       5.46934e-04       3.84328e+02
  7.800      2.44033e+02       2.04727e+01      -4.38584e+00       5.41154e-04       3.79010e+02
  7.900      2.43209e+02       2.09164e+01      -4.65446e+00       5.35447e-04       3.73748e+02
  8.000      2.42373e+02       2.13966e+01      -4.91973e+00       5.29809e-04       3.68541e+02
  8.100      2.41529e+02       2.19081e+01      -5.17291e+00       5.24228e-04       3.63388e+02
  8.200      2.40684e+02       2.24440e+01      -5.40507e+00       5.18689e-04       3.58291e+02
  8.300      2.39843e+02       2.29979e+01      -5.60729e+00       5.13181e-04       3.53248e+02
  8.400      2.39012e+02       2.35631e+01      -5.77073e+00       5.07691e-04       3.48258e+02
  8.500      2.38194e+02       2.41318e+01      -5.89086e+00       5.02215e-04       3.43323e+02
  8.600      2.37385e+02       2.46943e+01      -5.96955e+00       4.96762e-04       3.38441e+02
  8.700      2.36580e+02       2.52411e+01      -6.00917e+00       4.91342e-04       3.33613e+02
  8.800      2.35774e+02       2.57625e+01      -6.01209e+00       4.85963e-04       3.28838e+02
  8.900      2.34965e+02       2.62489e+01      -5.98070e+00       4.80635e-04       3.24115e+02
  9.000      2.34148e+02       2.66939e+01      -5.91737e+00       4.75362e-04       3.19445e+02
  9.100      2.33322e+02       2.70992e+01      -5.82454e+00       4.70147e-04       3.14827e+02
  9.200      2.32489e+02       2.74677e+01      -5.70463e+00       4.64987e-04       3.10259e+02
  9.300      2.31646e+02       2.78020e+01      -5.56007e+00       4.59884e-04       3.05742e+02
  9.400      2.30795e+02       2.81050e+01      -5.39329e+00       4.54835e-04       3.01274e+02
  9.500      2.29934e+02       2.83792e+01      -5.20664e+00       4.49841e-04       2.96855e+02
  9.600      2.29066e+02       2.86265e+01      -5.00179e+00       4.44898e-04       2.92485e+02
  9.700      2.28195e+02       2.88480e+01      -4.77998e+00       4.39998e-04       2.88163e+02
  9.800      2.27322e+02       2.90450e+01      -4.54249e+00       4.35135e-04       2.83888e+02
  9.900      2.26451e+02       2.92185e+01      -4.29057e+00       4.30304e-04       2.79661e+02
 10.000      2.25586e+02       2.93699e+01      -4.02546e+00       4.25499e-04       2.75482e+02
 10.100      2.24730e+02       2.95003e+01      -3.74803e+00       4.20714e-04       2.71349e+02
 10.200      2.23881e+02       2.96110e+01      -3.45683e+00       4.15949e-04       2.67264e+02
 10.300      2.23041e+02       2.97034e+01      -3.14957e+00       4.11206e-04       2.63224e+02
 10.400      2.22209e+02       2.97786e+01      -2.82399e+00       4.06485e-04       2.59231e+02
 10.500      2.21383e+02       2.98380e+01      -2.47783e+00       4.01787e-04       2.55284e+02
 10.600      2.20565e+02       2.98830e+01      -2.10882e+00       3.97114e-04       2.51382e+02
 10.700      2.19753e+02       2.99148e+01      -1.71530e+00       3.92466e-04       2.47525e+02
 10.800      2.18949e+02       2.99338e+01      -1.30342e+00       3.87841e-04       2.43713e+02
 10.900      2.18156e+02       2.99404e+01      -8.84714e-01       3.83234e-04       2.39946e+02
 11.000      2.17378e+02       2.99345e+01      -4.70790e-01       3.78641e-04       2.36225e+02
 11.100      2.16618e+02       2.99162e+01      -7.32766e-02       3.74057e-04       2.32549e+02
 11.200      2.15878e+02       2.98857e+01       2.96201e-01       3.69479e-04       2.28918e+02
 11.300      2.15162e+02       2.98431e+01       6.26028e-01       3.64902e-04       2.25333e+02
 11.400      2.14472e+02       2.97894e+01       9.06698e-01       3.60325e-04       2.21793e+02
 11.500      2.13802e+02       2.97314e+01       1.13998e+00       3.55758e-04       2.18298e+02
 11.600      2.13146e+02       2.96775e+01       1.33133e+00       3.51213e-04       2.14847e+02
 11.700      2.12495e+02       2.96360e+01       1.48625e+00       3.46702e-04       2.11440e+02
 11.800      2.11842e+02       2.96154e+01       1.61020e+00       3.42239e-04       2.08076e+02
 11.900      2.11179e+02       2.96243e+01       1.70866e+00       3.37834e-04       2.04756e+02
 12.000      2.10499e+02       2.96709e+01       1.78712e+00       3.33498e-04       2.01477e+02
 12.100      2.09795e+02       2.97632e+01       1.85078e+00       3.29242e-04       1.98241e+02
 12.200      2.09069e+02       2.99014e+01       1.90004e+00       3.25061e-04       1.95046e+02
 12.300      2.08330e+02       3.00780e+01       1.93097e+00       3.20940e-04       1.91892e+02
 12.400      2.07587e+02       3.02857e+01       1.93949e+00       3.16863e-04       1.88779e+02
 12.500      2.06850e+02       3.05169e+01       1.92153e+00       3.12815e-04       1.85706e+02
 12.600      2.06129e+02       3.07641e+01       1.87302e+00       3.08782e-04       1.82672e+02
 12.700      2.05433e+02       3.10200e+01       1.78990e+00       3.04750e-04       1.79678e+02
 12.800      2.04772e+02       3.12769e+01       1.66807e+00       3.00706e-04       1.76723e+02
 12.900      2.04155e+02       3.15275e+01       1.50352e+00       2.96636e-04       1.73807e+02
 13.000      2.03590e+02       3.17643e+01       1.29353e+00       2.92535e-04       1.70929e+02
 13.100      2.03080e+02       3.19803e+01       1.03709e+00       2.88401e-04       1.68092e+02
 13.200      2.02627e+02       3.21682e+01       7.33291e-01       2.84236e-04       1.65295e+02
 13.300      2.02236e+02       3.23209e+01       3.81226e-01       2.80039e-04       1.62539e+02
 13.400      2.01908e+02       3.24313e+01      -2.00117e-02       2.75812e-04       1.59826e+02
 13.500      2.01648e+02       3.24922e+01      -4.71337e-01       2.71555e-04       1.57157e+02
 13.600      2.01458e+02       3.24964e+01      -9.73656e-01       2.67269e-04       1.54530e+02
 13.700      2.01341e+02       3.24367e+01      -1.52787e+00       2.62956e-04       1.51949e+02
 13.800      2.01301e+02       3.23062e+01      -2.13486e+00       2.58616e-04       1.49411e+02
 13.900      2.01337e+02       3.21022e+01      -2.78939e+00       2.54256e-04       1.46919e+02
 14.000      2.01441e+02       3.18318e+01      -3.47386e+00       2.49887e-04       1.44469e+02
 14.100      2.01605e+02       3.15031e+01      -4.16916e+00       2.45525e-04       1.42062e+02
 14.200      2.01819e+02       3.11242e+01      -4.85620e+00       2.41180e-04       1.39696e+02
 14.300      2.02074e+02       3.07034e+01      -5.51586e+00       2.36865e-04       1.37370e+02
 14.400      2.02361e+02       3.02486e+01      -6.12905e+00       2.32590e-04       1.35082e+02
 14.500      2.02672e+02       2.97681e+01      -6.67666e+00       2.28365e-04       1.32833e+02
 14.600      2.02998e+02       2.92699e+01      -7.13959e+00       2.24200e-04       1.30620e+02
 14.700      2.03329e+02       2.87623e+01      -7.49873e+00       2.20104e-04       1.28443e+02
 14.800      2.03658e+02       2.82534e+01      -7.73498e+00       2.16083e-04       1.26300e+02
 14.900      2.03974e+02       2.77511e+01      -7.82957e+00       2.12146e-04       1.24192e+02
 15.000      2.04274e+02       2.72601e+01      -7.77788e+00       2.08296e-04       1.22117e+02
 15.100      2.04558e+02       2.67802e+01      -7.59442e+00       2.04530e-04       1.20076e+02
 15.200      2.04827e+02       2.63107e+01      -7.29503e+00       2.00849e-04       1.18070e+02
 15.300      2.05082e+02       2.58513e+01      -6.89559e+00       1.97250e-04       1.16099e+02
 15.400      2.05324e+02       2.54013e+01      -6.41193e+00       1.93732e-04       1.14163e+02
 15.500      2.05555e+02       2.49601e+01      -5.85991e+00       1.90294e-04       1.12263e+02
 15.600      2.05776e+02       2.45274e+01      -5.25540e+00       1.86934e-04       1.10399e+02
 15.700      2.05986e+02       2.41025e+01      -4.61424e+00       1.83651e-04       1.08571e+02
 15.800      2.06189e+02       2.36850e+01      -3.95229e+00       1.80443e-04       1.06779e+02
 15.900      2.06384e+02       2.32742e+01      -3.28541e+00       1.77309e-04       1.05024e+02
 16.000      2.06573e+02       2.28696e+01      -2.62944e+00       1.74249e-04       1.03306e+02
 16.100      2.06757e+02       2.24708e+01      -2.00025e+00       1.71260e-04       1.01624e+02
 16.200      2.06937e+02       2.20771e+01      -1.41369e+00       1.68341e-04       9.99793e+01
 16.300      2.07114e+02       2.16882e+01      -8.82365e-01       1.65490e-04       9.83705e+01
 16.400      2.07288e+02       2.13041e+01      -4.06286e-01       1.62706e-04       9.67966e+01
 16.500      2.07460e+02       2.09249e+01       1.75188e-02       1.59984e-04       9.52560e+01
 16.600      2.07628e+02       2.05509e+01       3.92035e-01       1.57322e-04       9.37470e+01
 16.700      2.07793e+02       2.01821e+01       7.20250e-01       1.54717e-04       9.22682e+01
 16.800      2.07956e+02       1.98187e+01       1.00514e+00       1.52167e-04       9.08181e+01
 16.900      2.08116e+02       1.94609e+01       1.24971e+00       1.49668e-04       8.93954e+01
 17.000      2.08273e+02       1.91089e+01       1.45694e+00       1.47218e-04       8.79987e+01
 17.100      2.08427e+02       1.87626e+01       1.62981e+00       1.44816e-04       8.66268e+01
 17.200      2.08578e+02       1.84225e+01       1.77130e+00       1.42459e-04       8.52785e+01
 17.300      2.08726e+02       1.80885e+01       1.88441e+00       1.40144e-04       8.39526e+01
 17.400      2.08872e+02       1.77608e+01       1.97211e+00       1.37870e-04       8.26481e+01
 17.500      2.09015e+02       1.74396e+01       2.03740e+00       1.35635e-04       8.13640e+01
 17.600      2.09155e+02       1.71251e+01       2.08327e+00       1.33437e-04       8.00991e+01
 17.700      2.09292e+02       1.68174e+01       2.11269e+00       1.31275e-04       7.88527e+01
 17.800      2.09427e+02       1.65166e+01       2.12865e+00       1.29146e-04       7.76238e+01
 17.900      2.09558e+02       1.62229e+01       2.13414e+00       1.27049e-04       7.64115e+01
 18.000      2.09687e+02       1.59365e+01       2.13215e+00       1.24983e-04       7.52150e+01
 18.100      2.09814e+02       1.56575e+01       2.12565e+00       1.22946e-04       7.40336e+01
 18.200      2.09937e+02       1.53860e+01       2.11765e+00       1.20936e-04       7.28666e+01
 18.300      2.10058e+02       1.51223e+01       2.11111e+00       1.18954e-04       7.17132e+01
 18.400      2.10176e+02       1.48664e+01       2.10903e+00       1.16996e-04       7.05728e+01
 18.500      2.10291e+02       1.46185e+01       2.11433e+00       1.15063e-04       6.94447e+01
 18.600      2.10404e+02       1.43788e+01       2.12835e+00       1.13154e-04       6.83290e+01
 18.700      2.10515e+02       1.41471e+01       2.15084e+00       1.11269e-04       6.72262e+01
 18.800      2.10624e+02       1.39236e+01       2.18145e+00       1.09409e-04       6.61366e+01
 18.900      2.10731e+02       1.37083e+01       2.21987e+00       1.07575e-04       6.50609e+01
 19.000      2.10837e+02       1.35011e+01       2.26576e+00       1.05766e-04       6.39993e+01
 19.100      2.10942e+02       1.33020e+01       2.31879e+00       1.03984e-04       6.29522e+01
 19.200      2.11046e+02       1.31112e+01       2.37863e+00       1.02229e-04       6.19200e+01
 19.300      2.11150e+02       1.29285e+01       2.44495e+00       1.00500e-04       6.09031e+01
 19.400      2.11254e+02       1.27540e+01       2.51742e+00       9.87987e-05       5.99016e+01
 19.500      2.11358e+02       1.25878e+01       2.59571e+00       9.71248e-05       5.89158e+01
 19.600      2.11463e+02       1.24298e+01       2.67949e+00       9.54785e-05       5.79459e+01
 19.700      2.11570e+02       1.22800e+01       2.76844e+00       9.38600e-05       5.69922e+01
 19.800      2.11677e+02       1.21385e+01       2.86220e+00       9.22694e-05       5.60548e+01
 19.900      2.11786e+02       1.20052e+01       2.96047e+00       9.07068e-05       5.51339e+01
 20.000      2.11897e+02       1.18802e+01       3.06291e+00       8.91722e-05       5.42295e+01
 20.100      2.12010e+02       1.17635e+01       3.16919e+00       8.76657e-05       5.33418e+01
 20.200      2.12126e+02       1.16551e+01       3.27897e+00       8.61873e-05       5.24709e+01
 20.300      2.12244e+02       1.15550e+01       3.39193e+00       8.47370e-05       5.16168e+01
