# Data Source: NASA MERRA (version 2)
# Model Time = 2011-12-26 18:00:00
# Location = [  39.1026,  -84.5123 ]
# Fields = [ Z(km), T(K), U(m/s), V(m/s), R(g/cm3), P(mbar) ]
# Ground Height = 0.165
  0.000      2.80976e+02      -5.72778e-01       2.42603e+00       1.27283e-03       1.02641e+03
  0.100      2.79931e+02      -7.62294e-01       2.57962e+00       1.26197e-03       1.01387e+03
  0.200      2.78950e+02      -9.14288e-01       2.80559e+00       1.25097e-03       1.00151e+03
  0.300      2.77977e+02      -1.06216e+00       3.03952e+00       1.24006e-03       9.89311e+02
  0.400      2.76953e+02      -1.23930e+00       3.21697e+00       1.22945e-03       9.77236e+02
  0.500      2.75844e+02      -1.45817e+00       3.28709e+00       1.21927e-03       9.65265e+02
  0.600      2.74780e+02      -1.58305e+00       3.29518e+00       1.20894e-03       9.53389e+02
  0.700      2.73970e+02      -1.42747e+00       3.31507e+00       1.19752e-03       9.41606e+02
  0.800      2.73675e+02      -9.33764e-01       3.29367e+00       1.18396e-03       9.29940e+02
  0.900      2.74160e+02      -1.23292e-01       3.11412e+00       1.16724e-03       9.18429e+02
  1.000      2.75291e+02       8.89631e-01       2.80159e+00       1.14810e-03       9.07094e+02
  1.100      2.76609e+02       1.91609e+00       2.49805e+00       1.12859e-03       8.95947e+02
  1.200      2.77812e+02       2.84210e+00       2.28091e+00       1.10995e-03       8.84988e+02
  1.300      2.78841e+02       3.66350e+00       2.13078e+00       1.09238e-03       8.74205e+02
  1.400      2.79653e+02       4.38452e+00       2.02083e+00       1.07598e-03       8.63587e+02
  1.500      2.80207e+02       5.00939e+00       1.92427e+00       1.06084e-03       8.53122e+02
  1.600      2.80466e+02       5.54281e+00       1.81529e+00       1.04704e-03       8.42799e+02
  1.700      2.80449e+02       5.99436e+00       1.67860e+00       1.03444e-03       8.32608e+02
  1.800      2.80211e+02       6.37649e+00       1.50509e+00       1.02280e-03       8.22539e+02
  1.900      2.79803e+02       6.70170e+00       1.28573e+00       1.01189e-03       8.12583e+02
  2.000      2.79281e+02       6.98248e+00       1.01152e+00       1.00149e-03       8.02733e+02
  2.100      2.78695e+02       7.23060e+00       6.74797e-01       9.91405e-04       7.92980e+02
  2.200      2.78073e+02       7.45083e+00       2.81157e-01       9.81519e-04       7.83321e+02
  2.300      2.77432e+02       7.64401e+00      -1.56433e-01       9.71776e-04       7.73758e+02
  2.400      2.76788e+02       7.81097e+00      -6.24929e-01       9.62120e-04       7.64290e+02
  2.500      2.76156e+02       7.95254e+00      -1.11128e+00       9.52499e-04       7.54919e+02
  2.600      2.75551e+02       8.06968e+00      -1.60248e+00       9.42861e-04       7.45643e+02
  2.700      2.74973e+02       8.16792e+00      -2.08654e+00       9.33210e-04       7.36463e+02
  2.800      2.74406e+02       8.25762e+00      -2.55254e+00       9.23603e-04       7.27378e+02
  2.900      2.73830e+02       8.34941e+00      -2.98964e+00       9.14101e-04       7.18385e+02
  3.000      2.73230e+02       8.45390e+00      -3.38698e+00       9.04760e-04       7.09485e+02
  3.100      2.72585e+02       8.58171e+00      -3.73371e+00       8.95636e-04       7.00674e+02
  3.200      2.71885e+02       8.74107e+00      -4.02114e+00       8.86767e-04       6.91953e+02
  3.300      2.71139e+02       8.92808e+00      -4.25147e+00       8.78111e-04       6.83319e+02
  3.400      2.70368e+02       9.13508e+00      -4.43035e+00       8.69602e-04       6.74772e+02
  3.500      2.69589e+02       9.35437e+00      -4.56341e+00       8.61177e-04       6.66309e+02
  3.600      2.68821e+02       9.57828e+00      -4.65628e+00       8.52773e-04       6.57929e+02
  3.700      2.68085e+02       9.79911e+00      -4.71460e+00       8.44332e-04       6.49632e+02
  3.800      2.67393e+02       1.00095e+01      -4.74339e+00       8.35809e-04       6.41415e+02
  3.900      2.66743e+02       1.02030e+01      -4.74543e+00       8.27221e-04       6.33280e+02
  4.000      2.66128e+02       1.03734e+01      -4.72306e+00       8.18591e-04       6.25229e+02
  4.100      2.65540e+02       1.05145e+01      -4.67861e+00       8.09947e-04       6.17261e+02
  4.200      2.64974e+02       1.06202e+01      -4.61439e+00       8.01312e-04       6.09379e+02
  4.300      2.64423e+02       1.06842e+01      -4.53274e+00       7.92710e-04       6.01582e+02
  4.400      2.63879e+02       1.07025e+01      -4.43618e+00       7.84163e-04       5.93871e+02
  4.500      2.63335e+02       1.06877e+01      -4.32879e+00       7.75692e-04       5.86246e+02
  4.600      2.62785e+02       1.06596e+01      -4.21534e+00       7.67315e-04       5.78704e+02
  4.700      2.62222e+02       1.06382e+01      -4.10062e+00       7.59049e-04       5.71243e+02
  4.800      2.61638e+02       1.06436e+01      -3.98941e+00       7.50912e-04       5.63862e+02
  4.900      2.61027e+02       1.06957e+01      -3.88648e+00       7.42921e-04       5.56558e+02
  5.000      2.60382e+02       1.08144e+01      -3.79661e+00       7.35091e-04       5.49331e+02
  5.100      2.59699e+02       1.10145e+01      -3.72098e+00       7.27429e-04       5.42178e+02
  5.200      2.58984e+02       1.12949e+01      -3.64980e+00       7.19913e-04       5.35099e+02
  5.300      2.58246e+02       1.16512e+01      -3.57125e+00       7.12518e-04       5.28093e+02
  5.400      2.57493e+02       1.20793e+01      -3.47348e+00       7.05219e-04       5.21160e+02
  5.500      2.56734e+02       1.25751e+01      -3.34465e+00       6.97992e-04       5.14300e+02
  5.600      2.55978e+02       1.31343e+01      -3.17292e+00       6.90813e-04       5.07511e+02
  5.700      2.55233e+02       1.37526e+01      -2.94646e+00       6.83660e-04       5.00793e+02
  5.800      2.54506e+02       1.44247e+01      -2.65671e+00       6.76512e-04       4.94146e+02
  5.900      2.53799e+02       1.51374e+01      -2.31395e+00       6.69368e-04       4.87569e+02
  6.000      2.53110e+02       1.58748e+01      -1.93516e+00       6.62230e-04       4.81061e+02
  6.100      2.52440e+02       1.66212e+01      -1.53732e+00       6.55100e-04       4.74621e+02
  6.200      2.51786e+02       1.73607e+01      -1.13741e+00       6.47981e-04       4.68249e+02
  6.300      2.51150e+02       1.80776e+01      -7.52421e-01       6.40875e-04       4.61943e+02
  6.400      2.50528e+02       1.87560e+01      -3.99332e-01       6.33786e-04       4.55703e+02
  6.500      2.49922e+02       1.93801e+01      -9.51251e-02       6.26715e-04       4.49528e+02
  6.600      2.49329e+02       1.99414e+01       1.46639e-01       6.19668e-04       4.43418e+02
  6.700      2.48745e+02       2.04544e+01       3.23282e-01       6.12658e-04       4.37375e+02
  6.800      2.48167e+02       2.09384e+01       4.34284e-01       6.05700e-04       4.31402e+02
  6.900      2.47589e+02       2.14124e+01       4.79123e-01       5.98808e-04       4.25501e+02
  7.000      2.47008e+02       2.18957e+01       4.57281e-01       5.91997e-04       4.19674e+02
  7.100      2.46420e+02       2.24075e+01       3.68237e-01       5.85278e-04       4.13923e+02
  7.200      2.45819e+02       2.29669e+01       2.11472e-01       5.78665e-04       4.08249e+02
  7.300      2.45203e+02       2.35931e+01      -1.35374e-02       5.72170e-04       4.02655e+02
  7.400      2.44567e+02       2.43045e+01      -3.06608e-01       5.65803e-04       3.97141e+02
  7.500      2.43910e+02       2.51063e+01      -6.52907e-01       5.59559e-04       3.91703e+02
  7.600      2.43236e+02       2.59904e+01      -1.02371e+00       5.53413e-04       3.86330e+02
  7.700      2.42547e+02       2.69485e+01      -1.38973e+00       5.47345e-04       3.81012e+02
  7.800      2.41848e+02       2.79722e+01      -1.72169e+00       5.41332e-04       3.75741e+02
  7.900      2.41141e+02       2.90531e+01      -1.99032e+00       5.35355e-04       3.70505e+02
  8.000      2.40430e+02       3.01827e+01      -2.16633e+00       5.29393e-04       3.65299e+02
  8.100      2.39717e+02       3.13528e+01      -2.22046e+00       5.23427e-04       3.60112e+02
  8.200      2.39007e+02       3.25547e+01      -2.12341e+00       5.17440e-04       3.54938e+02
  8.300      2.38302e+02       3.37803e+01      -1.84592e+00       5.11414e-04       3.49770e+02
  8.400      2.37605e+02       3.50202e+01      -1.37028e+00       5.05344e-04       3.44607e+02
  8.500      2.36915e+02       3.62625e+01      -7.19326e-01       4.99266e-04       3.39473e+02
  8.600      2.36229e+02       3.74945e+01       7.52478e-02       4.93223e-04       3.34394e+02
  8.700      2.35546e+02       3.87035e+01       9.81736e-01       4.87257e-04       3.29394e+02
  8.800      2.34863e+02       3.98770e+01       1.96846e+00       4.81407e-04       3.24496e+02
  8.900      2.34180e+02       4.10023e+01       3.00370e+00       4.75710e-04       3.19723e+02
  9.000      2.33493e+02       4.20668e+01       4.05579e+00       4.70202e-04       3.15095e+02
  9.100      2.32802e+02       4.30578e+01       5.09301e+00       4.64916e-04       3.10630e+02
  9.200      2.32104e+02       4.39628e+01       6.08367e+00       4.59886e-04       3.06348e+02
  9.300      2.31398e+02       4.47690e+01       6.99608e+00       4.55142e-04       3.02265e+02
  9.400      2.30680e+02       4.54640e+01       7.79901e+00       4.50714e-04       2.98396e+02
  9.500      2.29953e+02       4.60442e+01       8.47747e+00       4.46599e-04       2.94740e+02
  9.600      2.29217e+02       4.65162e+01       9.03640e+00       4.42761e-04       2.91271e+02
  9.700      2.28475e+02       4.68873e+01       9.48196e+00       4.39160e-04       2.87967e+02
  9.800      2.27729e+02       4.71651e+01       9.82031e+00       4.35759e-04       2.84804e+02
  9.900      2.26982e+02       4.73567e+01       1.00576e+01       4.32521e-04       2.81762e+02
 10.000      2.26237e+02       4.74698e+01       1.02000e+01       4.29413e-04       2.78818e+02
 10.100      2.25495e+02       4.75115e+01       1.02537e+01       4.26399e-04       2.75953e+02
 10.200      2.24759e+02       4.74893e+01       1.02248e+01       4.23447e-04       2.73148e+02
 10.300      2.24031e+02       4.74105e+01       1.01194e+01       4.20525e-04       2.70384e+02
 10.400      2.23313e+02       4.72827e+01       9.94383e+00       4.17601e-04       2.67644e+02
 10.500      2.22609e+02       4.71130e+01       9.70414e+00       4.14645e-04       2.64911e+02
 10.600      2.21920e+02       4.69089e+01       9.40651e+00       4.11626e-04       2.62169e+02
 10.700      2.21249e+02       4.66778e+01       9.05710e+00       4.08517e-04       2.59402e+02
 10.800      2.20597e+02       4.64271e+01       8.66207e+00       4.05289e-04       2.56594e+02
 10.900      2.19969e+02       4.61641e+01       8.22757e+00       4.01915e-04       2.53733e+02
 11.000      2.19364e+02       4.58962e+01       7.75976e+00       3.98369e-04       2.50804e+02
 11.100      2.18787e+02       4.56303e+01       7.26487e+00       3.94629e-04       2.47795e+02
 11.200      2.18239e+02       4.53689e+01       6.74961e+00       3.90690e-04       2.44707e+02
 11.300      2.17718e+02       4.51121e+01       6.22099e+00       3.86559e-04       2.41542e+02
 11.400      2.17227e+02       4.48597e+01       5.68601e+00       3.82241e-04       2.38305e+02
 11.500      2.16766e+02       4.46120e+01       5.15168e+00       3.77742e-04       2.35000e+02
 11.600      2.16335e+02       4.43688e+01       4.62501e+00       3.73071e-04       2.31633e+02
 11.700      2.15934e+02       4.41303e+01       4.11301e+00       3.68234e-04       2.28206e+02
 11.800      2.15565e+02       4.38964e+01       3.62268e+00       3.63237e-04       2.24725e+02
 11.900      2.15228e+02       4.36672e+01       3.16102e+00       3.58090e-04       2.21193e+02
 12.000      2.14923e+02       4.34427e+01       2.73505e+00       3.52799e-04       2.17616e+02
 12.100      2.14650e+02       4.32229e+01       2.35176e+00       3.47372e-04       2.13997e+02
 12.200      2.14411e+02       4.30078e+01       2.01818e+00       3.41818e-04       2.10341e+02
 12.300      2.14206e+02       4.27975e+01       1.74129e+00       3.36145e-04       2.06652e+02
 12.400      2.14035e+02       4.25920e+01       1.52812e+00       3.30361e-04       2.02934e+02
 12.500      2.13899e+02       4.23913e+01       1.38563e+00       3.24475e-04       1.99192e+02
 12.600      2.13797e+02       4.21953e+01       1.31626e+00       3.18502e-04       1.95432e+02
 12.700      2.13726e+02       4.20039e+01       1.31268e+00       3.12473e-04       1.91669e+02
 12.800      2.13681e+02       4.18166e+01       1.36631e+00       3.06416e-04       1.87914e+02
 12.900      2.13660e+02       4.16332e+01       1.46858e+00       3.00359e-04       1.84182e+02
 13.000      2.13659e+02       4.14535e+01       1.61092e+00       2.94329e-04       1.80483e+02
 13.100      2.13673e+02       4.12771e+01       1.78475e+00       2.88350e-04       1.76828e+02
 13.200      2.13699e+02       4.11037e+01       1.98149e+00       2.82443e-04       1.73227e+02
 13.300      2.13734e+02       4.09332e+01       2.19258e+00       2.76631e-04       1.69689e+02
 13.400      2.13773e+02       4.07651e+01       2.40942e+00       2.70930e-04       1.66223e+02
 13.500      2.13813e+02       4.05992e+01       2.62346e+00       2.65360e-04       1.62836e+02
 13.600      2.13850e+02       4.04352e+01       2.82611e+00       2.59935e-04       1.59535e+02
 13.700      2.13881e+02       4.02728e+01       3.00880e+00       2.54670e-04       1.56326e+02
 13.800      2.13901e+02       4.01117e+01       3.16295e+00       2.49577e-04       1.53214e+02
 13.900      2.13907e+02       3.99517e+01       3.27999e+00       2.44668e-04       1.50205e+02
 14.000      2.13896e+02       3.97924e+01       3.35289e+00       2.39952e-04       1.47302e+02
 14.100      2.13869e+02       3.96326e+01       3.38219e+00       2.35419e-04       1.44501e+02
 14.200      2.13826e+02       3.94712e+01       3.37078e+00       2.31060e-04       1.41796e+02
 14.300      2.13768e+02       3.93068e+01       3.32154e+00       2.26862e-04       1.39183e+02
 14.400      2.13699e+02       3.91383e+01       3.23738e+00       2.22816e-04       1.36656e+02
 14.500      2.13617e+02       3.89644e+01       3.12117e+00       2.18912e-04       1.34211e+02
 14.600      2.13526e+02       3.87839e+01       2.97579e+00       2.15141e-04       1.31843e+02
 14.700      2.13427e+02       3.85955e+01       2.80415e+00       2.11494e-04       1.29548e+02
 14.800      2.13319e+02       3.83979e+01       2.60912e+00       2.07964e-04       1.27321e+02
 14.900      2.13206e+02       3.81900e+01       2.39359e+00       2.04542e-04       1.25160e+02
 15.000      2.13089e+02       3.79705e+01       2.16046e+00       2.01222e-04       1.23060e+02
 15.100      2.12968e+02       3.77381e+01       1.91260e+00       1.97995e-04       1.21018e+02
 15.200      2.12845e+02       3.74916e+01       1.65290e+00       1.94857e-04       1.19031e+02
 15.300      2.12722e+02       3.72297e+01       1.38426e+00       1.91800e-04       1.17096e+02
 15.400      2.12600e+02       3.69512e+01       1.10955e+00       1.88818e-04       1.15209e+02
 15.500      2.12480e+02       3.66549e+01       8.31672e-01       1.85906e-04       1.13369e+02
 15.600      2.12363e+02       3.63395e+01       5.53505e-01       1.83059e-04       1.11571e+02
 15.700      2.12251e+02       3.60038e+01       2.77941e-01       1.80271e-04       1.09814e+02
 15.800      2.12146e+02       3.56465e+01       7.86205e-03       1.77538e-04       1.08096e+02
 15.900      2.12048e+02       3.52664e+01      -2.53839e-01       1.74855e-04       1.06413e+02
 16.000      2.11959e+02       3.48622e+01      -5.04279e-01       1.72218e-04       1.04764e+02
 16.100      2.11881e+02       3.44327e+01      -7.40570e-01       1.69622e-04       1.03147e+02
 16.200      2.11814e+02       3.39766e+01      -9.59824e-01       1.67063e-04       1.01559e+02
 16.300      2.11760e+02       3.34928e+01      -1.15915e+00       1.64539e-04       9.99988e+01
 16.400      2.11721e+02       3.29804e+01      -1.33632e+00       1.62045e-04       9.84649e+01
 16.500      2.11695e+02       3.24408e+01      -1.49170e+00       1.59582e-04       9.69561e+01
 16.600      2.11682e+02       3.18759e+01      -1.62630e+00       1.57148e-04       9.54717e+01
 16.700      2.11683e+02       3.12876e+01      -1.74114e+00       1.54743e-04       9.40108e+01
 16.800      2.11695e+02       3.06776e+01      -1.83724e+00       1.52367e-04       9.25728e+01
 16.900      2.11719e+02       3.00479e+01      -1.91562e+00       1.50019e-04       9.11569e+01
 17.000      2.11755e+02       2.94004e+01      -1.97729e+00       1.47700e-04       8.97626e+01
 17.100      2.11801e+02       2.87368e+01      -2.02327e+00       1.45408e-04       8.83891e+01
 17.200      2.11857e+02       2.80591e+01      -2.05457e+00       1.43144e-04       8.70358e+01
 17.300      2.11923e+02       2.73690e+01      -2.07222e+00       1.40907e-04       8.57022e+01
 17.400      2.11998e+02       2.66686e+01      -2.07723e+00       1.38697e-04       8.43877e+01
 17.500      2.12081e+02       2.59596e+01      -2.07061e+00       1.36513e-04       8.30916e+01
 17.600      2.12172e+02       2.52438e+01      -2.05339e+00       1.34356e-04       8.18136e+01
 17.700      2.12271e+02       2.45232e+01      -2.02657e+00       1.32224e-04       8.05530e+01
 17.800      2.12376e+02       2.37997e+01      -1.99118e+00       1.30118e-04       7.93094e+01
 17.900      2.12488e+02       2.30750e+01      -1.94824e+00       1.28037e-04       7.80823e+01
 18.000      2.12605e+02       2.23510e+01      -1.89875e+00       1.25982e-04       7.68713e+01
 18.100      2.12728e+02       2.16296e+01      -1.84375e+00       1.23951e-04       7.56759e+01
 18.200      2.12856e+02       2.09127e+01      -1.78423e+00       1.21945e-04       7.44958e+01
 18.300      2.12988e+02       2.02022e+01      -1.72123e+00       1.19963e-04       7.33304e+01
 18.400      2.13123e+02       1.94997e+01      -1.65575e+00       1.18005e-04       7.21796e+01
 18.500      2.13262e+02       1.88074e+01      -1.58882e+00       1.16071e-04       7.10427e+01
 18.600      2.13403e+02       1.81269e+01      -1.52145e+00       1.14161e-04       6.99196e+01
 18.700      2.13546e+02       1.74599e+01      -1.45464e+00       1.12274e-04       6.88101e+01
 18.800      2.13690e+02       1.68072e+01      -1.38933e+00       1.10411e-04       6.77143e+01
 18.900      2.13835e+02       1.61692e+01      -1.32644e+00       1.08574e-04       6.66325e+01
 19.000      2.13980e+02       1.55465e+01      -1.26689e+00       1.06762e-04       6.55651e+01
 19.100      2.14123e+02       1.49397e+01      -1.21162e+00       1.04977e-04       6.45122e+01
 19.200      2.14265e+02       1.43493e+01      -1.16155e+00       1.03220e-04       6.34740e+01
 19.300      2.14405e+02       1.37758e+01      -1.11760e+00       1.01490e-04       6.24509e+01
 19.400      2.14541e+02       1.32198e+01      -1.08070e+00       9.97883e-05       6.14428e+01
 19.500      2.14673e+02       1.26819e+01      -1.05178e+00       9.81156e-05       6.04501e+01
 19.600      2.14800e+02       1.21625e+01      -1.03175e+00       9.64721e-05       5.94727e+01
 19.700      2.14922e+02       1.16623e+01      -1.02155e+00       9.48581e-05       5.85109e+01
 19.800      2.15037e+02       1.11818e+01      -1.02210e+00       9.32740e-05       5.75647e+01
 19.900      2.15146e+02       1.07215e+01      -1.03433e+00       9.17200e-05       5.66342e+01
 20.000      2.15246e+02       1.02819e+01      -1.05916e+00       9.01963e-05       5.57194e+01
 20.100      2.15338e+02       9.86373e+00      -1.09752e+00       8.87031e-05       5.48204e+01
 20.200      2.15421e+02       9.46738e+00      -1.15033e+00       8.72405e-05       5.39372e+01
 20.300      2.15494e+02       9.09346e+00      -1.21852e+00       8.58086e-05       5.30698e+01
