# Data Source: NASA MERRA (version 2)
# Model Time = 2011-10-15 18:00:00
# Location = [  39.1026,  -84.5123 ]
# Fields = [ Z(km), T(K), U(m/s), V(m/s), R(g/cm3), P(mbar) ]
# Ground Height = 0.165
  0.000      2.90344e+02       7.70839e+00       3.04539e-01       1.21584e-03       1.01314e+03
  0.100      2.89621e+02       7.90025e+00       3.09467e-01       1.20461e-03       1.00129e+03
  0.200      2.88905e+02       8.06318e+00       3.19779e-01       1.19346e-03       9.89569e+02
  0.300      2.88126e+02       8.46217e+00       2.86177e-01       1.18266e-03       9.77969e+02
  0.400      2.87221e+02       9.31219e+00       1.66642e-01       1.17243e-03       9.66465e+02
  0.500      2.86239e+02       1.03816e+01      -1.58904e-02       1.16256e-03       9.55052e+02
  0.600      2.85281e+02       1.12233e+01      -2.06987e-01       1.15265e-03       9.43737e+02
  0.700      2.84348e+02       1.17381e+01      -3.99254e-01       1.14268e-03       9.32521e+02
  0.800      2.83361e+02       1.21282e+01      -6.26053e-01       1.13299e-03       9.21397e+02
  0.900      2.82289e+02       1.25238e+01      -9.02799e-01       1.12367e-03       9.10364e+02
  1.000      2.81191e+02       1.29251e+01      -1.21429e+00       1.11450e-03       8.99420e+02
  1.100      2.80125e+02       1.33275e+01      -1.55485e+00       1.10524e-03       8.88568e+02
  1.200      2.79122e+02       1.37509e+01      -1.96054e+00       1.09578e-03       8.77809e+02
  1.300      2.78209e+02       1.42200e+01      -2.47631e+00       1.08602e-03       8.67147e+02
  1.400      2.77412e+02       1.47598e+01      -3.14712e+00       1.07588e-03       8.56586e+02
  1.500      2.76755e+02       1.53945e+01      -4.01640e+00       1.06527e-03       8.46130e+02
  1.600      2.76236e+02       1.61203e+01      -5.05697e+00       1.05422e-03       8.35778e+02
  1.700      2.75804e+02       1.68938e+01      -6.14274e+00       1.04292e-03       8.25531e+02
  1.800      2.75411e+02       1.76688e+01      -7.14019e+00       1.03158e-03       8.15388e+02
  1.900      2.75004e+02       1.83991e+01      -7.91583e+00       1.02038e-03       8.05346e+02
  2.000      2.74535e+02       1.90394e+01      -8.34028e+00       1.00951e-03       7.95406e+02
  2.100      2.73992e+02       1.95751e+01      -8.39746e+00       9.98995e-04       7.85568e+02
  2.200      2.73405e+02       2.00254e+01      -8.19591e+00       9.88733e-04       7.75831e+02
  2.300      2.72805e+02       2.04109e+01      -7.85059e+00       9.78603e-04       7.66198e+02
  2.400      2.72225e+02       2.07524e+01      -7.47643e+00       9.68491e-04       7.56670e+02
  2.500      2.71697e+02       2.10706e+01      -7.18778e+00       9.58289e-04       7.47246e+02
  2.600      2.71233e+02       2.13795e+01      -7.04855e+00       9.47957e-04       7.37927e+02
  2.700      2.70812e+02       2.16821e+01      -7.03565e+00       9.37572e-04       7.28710e+02
  2.800      2.70410e+02       2.19800e+01      -7.11739e+00       9.27219e-04       7.19593e+02
  2.900      2.70003e+02       2.22750e+01      -7.26206e+00       9.16978e-04       7.10574e+02
  3.000      2.69566e+02       2.25687e+01      -7.43796e+00       9.06930e-04       7.01651e+02
  3.100      2.69080e+02       2.28636e+01      -7.61633e+00       8.97137e-04       6.92822e+02
  3.200      2.68550e+02       2.31669e+01      -7.78925e+00       8.87571e-04       6.84085e+02
  3.300      2.67996e+02       2.34881e+01      -7.95778e+00       8.78169e-04       6.75442e+02
  3.400      2.67435e+02       2.38363e+01      -8.12301e+00       8.68868e-04       6.66890e+02
  3.500      2.66887e+02       2.42212e+01      -8.28603e+00       8.59609e-04       6.58431e+02
  3.600      2.66370e+02       2.46519e+01      -8.44794e+00       8.50334e-04       6.50064e+02
  3.700      2.65897e+02       2.51348e+01      -8.61060e+00       8.41000e-04       6.41787e+02
  3.800      2.65464e+02       2.56629e+01      -8.77905e+00       8.31627e-04       6.33603e+02
  3.900      2.65064e+02       2.62259e+01      -8.95916e+00       8.22247e-04       6.25510e+02
  4.000      2.64685e+02       2.68137e+01      -9.15676e+00       8.12890e-04       6.17509e+02
  4.100      2.64320e+02       2.74158e+01      -9.37772e+00       8.03588e-04       6.09600e+02
  4.200      2.63959e+02       2.80222e+01      -9.62789e+00       7.94367e-04       6.01784e+02
  4.300      2.63595e+02       2.86232e+01      -9.91221e+00       7.85256e-04       5.94060e+02
  4.400      2.63220e+02       2.92151e+01      -1.02282e+01       7.76270e-04       5.86426e+02
  4.500      2.62831e+02       2.97968e+01      -1.05698e+01       7.67416e-04       5.78881e+02
  4.600      2.62423e+02       3.03675e+01      -1.09309e+01       7.58705e-04       5.71422e+02
  4.700      2.61992e+02       3.09261e+01      -1.13054e+01       7.50145e-04       5.64048e+02
  4.800      2.61534e+02       3.14716e+01      -1.16871e+01       7.41744e-04       5.56756e+02
  4.900      2.61044e+02       3.20032e+01      -1.20700e+01       7.33510e-04       5.49544e+02
  5.000      2.60520e+02       3.25216e+01      -1.24488e+01       7.25446e-04       5.42411e+02
  5.100      2.59966e+02       3.30341e+01      -1.28215e+01       7.17537e-04       5.35356e+02
  5.200      2.59387e+02       3.35490e+01      -1.31862e+01       7.09765e-04       5.28378e+02
  5.300      2.58789e+02       3.40749e+01      -1.35415e+01       7.02113e-04       5.21477e+02
  5.400      2.58177e+02       3.46200e+01      -1.38858e+01       6.94565e-04       5.14651e+02
  5.500      2.57557e+02       3.51929e+01      -1.42175e+01       6.87105e-04       5.07900e+02
  5.600      2.56933e+02       3.58019e+01      -1.45350e+01       6.79718e-04       5.01223e+02
  5.700      2.56312e+02       3.64536e+01      -1.48366e+01       6.72389e-04       4.94619e+02
  5.800      2.55691e+02       3.71405e+01      -1.51203e+01       6.65120e-04       4.88087e+02
  5.900      2.55069e+02       3.78494e+01      -1.53838e+01       6.57915e-04       4.81625e+02
  6.000      2.54443e+02       3.85670e+01      -1.56251e+01       6.50780e-04       4.75232e+02
  6.100      2.53809e+02       3.92800e+01      -1.58418e+01       6.43719e-04       4.68906e+02
  6.200      2.53166e+02       3.99751e+01      -1.60317e+01       6.36737e-04       4.62645e+02
  6.300      2.52510e+02       4.06391e+01      -1.61926e+01       6.29840e-04       4.56448e+02
  6.400      2.51839e+02       4.12585e+01      -1.63223e+01       6.23031e-04       4.50313e+02
  6.500      2.51151e+02       4.18226e+01      -1.64201e+01       6.16314e-04       4.44241e+02
  6.600      2.50444e+02       4.23315e+01      -1.64918e+01       6.09691e-04       4.38231e+02
  6.700      2.49721e+02       4.27884e+01      -1.65454e+01       6.03163e-04       4.32287e+02
  6.800      2.48982e+02       4.31967e+01      -1.65888e+01       5.96730e-04       4.26410e+02
  6.900      2.48227e+02       4.35599e+01      -1.66299e+01       5.90392e-04       4.20602e+02
  7.000      2.47457e+02       4.38811e+01      -1.66766e+01       5.84151e-04       4.14866e+02
  7.100      2.46673e+02       4.41639e+01      -1.67368e+01       5.78007e-04       4.09202e+02
  7.200      2.45876e+02       4.44115e+01      -1.68185e+01       5.71961e-04       4.03612e+02
  7.300      2.45066e+02       4.46274e+01      -1.69294e+01       5.66011e-04       3.98098e+02
  7.400      2.44244e+02       4.48191e+01      -1.70724e+01       5.60151e-04       3.92655e+02
  7.500      2.43414e+02       4.50001e+01      -1.72432e+01       5.54361e-04       3.87275e+02
  7.600      2.42577e+02       4.51846e+01      -1.74365e+01       5.48621e-04       3.81948e+02
  7.700      2.41737e+02       4.53866e+01      -1.76475e+01       5.42912e-04       3.76664e+02
  7.800      2.40896e+02       4.56202e+01      -1.78710e+01       5.37214e-04       3.71414e+02
  7.900      2.40056e+02       4.58996e+01      -1.81020e+01       5.31511e-04       3.66191e+02
  8.000      2.39221e+02       4.62388e+01      -1.83354e+01       5.25785e-04       3.60986e+02
  8.100      2.38393e+02       4.66519e+01      -1.85661e+01       5.20020e-04       3.55792e+02
  8.200      2.37575e+02       4.71531e+01      -1.87892e+01       5.14200e-04       3.50602e+02
  8.300      2.36768e+02       4.77520e+01      -1.90002e+01       5.08316e-04       3.45414e+02
  8.400      2.35975e+02       4.84335e+01      -1.91989e+01       5.02397e-04       3.40248e+02
  8.500      2.35197e+02       4.91741e+01      -1.93866e+01       4.96482e-04       3.35133e+02
  8.600      2.34434e+02       4.99498e+01      -1.95643e+01       4.90608e-04       3.30093e+02
  8.700      2.33687e+02       5.07368e+01      -1.97334e+01       4.84810e-04       3.25153e+02
  8.800      2.32957e+02       5.15115e+01      -1.98949e+01       4.79124e-04       3.20336e+02
  8.900      2.32246e+02       5.22500e+01      -2.00501e+01       4.73580e-04       3.15663e+02
  9.000      2.31554e+02       5.29285e+01      -2.02001e+01       4.68211e-04       3.11155e+02
  9.100      2.30883e+02       5.35233e+01      -2.03462e+01       4.63045e-04       3.06829e+02
  9.200      2.30232e+02       5.40106e+01      -2.04895e+01       4.58110e-04       3.02704e+02
  9.300      2.29604e+02       5.43668e+01      -2.06312e+01       4.53434e-04       2.98796e+02
  9.400      2.28999e+02       5.45803e+01      -2.07710e+01       4.49019e-04       2.95107e+02
  9.500      2.28417e+02       5.46596e+01      -2.09057e+01       4.44834e-04       2.91614e+02
  9.600      2.27857e+02       5.46147e+01      -2.10324e+01       4.40847e-04       2.88292e+02
  9.700      2.27321e+02       5.44557e+01      -2.11476e+01       4.37025e-04       2.85120e+02
  9.800      2.26808e+02       5.41927e+01      -2.12484e+01       4.33337e-04       2.82076e+02
  9.900      2.26318e+02       5.38359e+01      -2.13313e+01       4.29753e-04       2.79139e+02
 10.000      2.25851e+02       5.33953e+01      -2.13934e+01       4.26245e-04       2.76289e+02
 10.100      2.25408e+02       5.28812e+01      -2.14313e+01       4.22785e-04       2.73509e+02
 10.200      2.24988e+02       5.23035e+01      -2.14418e+01       4.19347e-04       2.70778e+02
 10.300      2.24591e+02       5.16724e+01      -2.14218e+01       4.15903e-04       2.68081e+02
 10.400      2.24217e+02       5.09980e+01      -2.13681e+01       4.12429e-04       2.65399e+02
 10.500      2.23867e+02       5.02905e+01      -2.12775e+01       4.08900e-04       2.62718e+02
 10.600      2.23541e+02       4.95599e+01      -2.11467e+01       4.05293e-04       2.60021e+02
 10.700      2.23238e+02       4.88164e+01      -2.09726e+01       4.01586e-04       2.57293e+02
 10.800      2.22959e+02       4.80701e+01      -2.07520e+01       3.97757e-04       2.54521e+02
 10.900      2.22703e+02       4.73310e+01      -2.04817e+01       3.93786e-04       2.51691e+02
 11.000      2.22471e+02       4.66093e+01      -2.01585e+01       3.89653e-04       2.48790e+02
 11.100      2.22262e+02       4.59098e+01      -1.97833e+01       3.85353e-04       2.45813e+02
 11.200      2.22073e+02       4.52317e+01      -1.93613e+01       3.80896e-04       2.42764e+02
 11.300      2.21903e+02       4.45733e+01      -1.88984e+01       3.76293e-04       2.39647e+02
 11.400      2.21751e+02       4.39333e+01      -1.84003e+01       3.71553e-04       2.36465e+02
 11.500      2.21612e+02       4.33102e+01      -1.78727e+01       3.66688e-04       2.33224e+02
 11.600      2.21487e+02       4.27026e+01      -1.73214e+01       3.61708e-04       2.29926e+02
 11.700      2.21372e+02       4.21090e+01      -1.67521e+01       3.56624e-04       2.26577e+02
 11.800      2.21266e+02       4.15279e+01      -1.61705e+01       3.51446e-04       2.23180e+02
 11.900      2.21167e+02       4.09579e+01      -1.55823e+01       3.46183e-04       2.19739e+02
 12.000      2.21072e+02       4.03975e+01      -1.49934e+01       3.40846e-04       2.16258e+02
 12.100      2.20979e+02       3.98452e+01      -1.44094e+01       3.35444e-04       2.12742e+02
 12.200      2.20887e+02       3.92997e+01      -1.38360e+01       3.29988e-04       2.09194e+02
 12.300      2.20794e+02       3.87595e+01      -1.32791e+01       3.24485e-04       2.05619e+02
 12.400      2.20697e+02       3.82230e+01      -1.27443e+01       3.18945e-04       2.02019e+02
 12.500      2.20594e+02       3.76890e+01      -1.22372e+01       3.13376e-04       1.98400e+02
 12.600      2.20485e+02       3.71569e+01      -1.17605e+01       3.07792e-04       1.94768e+02
 12.700      2.20369e+02       3.66275e+01      -1.13130e+01       3.02212e-04       1.91137e+02
 12.800      2.20247e+02       3.61017e+01      -1.08935e+01       2.96651e-04       1.87516e+02
 12.900      2.20118e+02       3.55802e+01      -1.05006e+01       2.91128e-04       1.83917e+02
 13.000      2.19983e+02       3.50639e+01      -1.01331e+01       2.85657e-04       1.80350e+02
 13.100      2.19841e+02       3.45537e+01      -9.78966e+00       2.80251e-04       1.76823e+02
 13.200      2.19693e+02       3.40503e+01      -9.46906e+00       2.74926e-04       1.73346e+02
 13.300      2.19540e+02       3.35546e+01      -9.16998e+00       2.69691e-04       1.69926e+02
 13.400      2.19379e+02       3.30673e+01      -8.89115e+00       2.64559e-04       1.66571e+02
 13.500      2.19213e+02       3.25894e+01      -8.63129e+00       2.59539e-04       1.63287e+02
 13.600      2.19041e+02       3.21217e+01      -8.38910e+00       2.54641e-04       1.60080e+02
 13.700      2.18863e+02       3.16649e+01      -8.16331e+00       2.49873e-04       1.56955e+02
 13.800      2.18680e+02       3.12199e+01      -7.95264e+00       2.45244e-04       1.53918e+02
 13.900      2.18490e+02       3.07875e+01      -7.75580e+00       2.40759e-04       1.50972e+02
 14.000      2.18295e+02       3.03684e+01      -7.57153e+00       2.36425e-04       1.48122e+02
 14.100      2.18095e+02       2.99624e+01      -7.39883e+00       2.32238e-04       1.45365e+02
 14.200      2.17890e+02       2.95682e+01      -7.23687e+00       2.28191e-04       1.42698e+02
 14.300      2.17682e+02       2.91847e+01      -7.08483e+00       2.24275e-04       1.40115e+02
 14.400      2.17470e+02       2.88109e+01      -6.94187e+00       2.20484e-04       1.37612e+02
 14.500      2.17255e+02       2.84455e+01      -6.80718e+00       2.16810e-04       1.35186e+02
 14.600      2.17039e+02       2.80876e+01      -6.67993e+00       2.13246e-04       1.32831e+02
 14.700      2.16821e+02       2.77360e+01      -6.55929e+00       2.09787e-04       1.30546e+02
 14.800      2.16602e+02       2.73895e+01      -6.44444e+00       2.06427e-04       1.28325e+02
 14.900      2.16384e+02       2.70470e+01      -6.33454e+00       2.03159e-04       1.26166e+02
 15.000      2.16166e+02       2.67075e+01      -6.22878e+00       1.99978e-04       1.24066e+02
 15.100      2.15949e+02       2.63698e+01      -6.12632e+00       1.96880e-04       1.22021e+02
 15.200      2.15735e+02       2.60328e+01      -6.02634e+00       1.93859e-04       1.20029e+02
 15.300      2.15522e+02       2.56953e+01      -5.92802e+00       1.90910e-04       1.18087e+02
 15.400      2.15313e+02       2.53564e+01      -5.83052e+00       1.88029e-04       1.16192e+02
 15.500      2.15108e+02       2.50147e+01      -5.73303e+00       1.85212e-04       1.14343e+02
 15.600      2.14907e+02       2.46693e+01      -5.63471e+00       1.82455e-04       1.12535e+02
 15.700      2.14712e+02       2.43190e+01      -5.53474e+00       1.79754e-04       1.10768e+02
 15.800      2.14522e+02       2.39626e+01      -5.43230e+00       1.77105e-04       1.09040e+02
 15.900      2.14339e+02       2.35992e+01      -5.32655e+00       1.74504e-04       1.07347e+02
 16.000      2.14162e+02       2.32275e+01      -5.21667e+00       1.71949e-04       1.05688e+02
 16.100      2.13994e+02       2.28464e+01      -5.10184e+00       1.69436e-04       1.04061e+02
 16.200      2.13834e+02       2.24548e+01      -4.98122e+00       1.66962e-04       1.02465e+02
 16.300      2.13682e+02       2.20517e+01      -4.85400e+00       1.64524e-04       1.00897e+02
 16.400      2.13541e+02       2.16359e+01      -4.71936e+00       1.62119e-04       9.93569e+01
 16.500      2.13409e+02       2.12072e+01      -4.57713e+00       1.59747e-04       9.78423e+01
 16.600      2.13287e+02       2.07670e+01      -4.42791e+00       1.57404e-04       9.63525e+01
 16.700      2.13175e+02       2.03163e+01      -4.27236e+00       1.55091e-04       9.48868e+01
 16.800      2.13072e+02       1.98564e+01      -4.11112e+00       1.52807e-04       9.34444e+01
 16.900      2.12979e+02       1.93885e+01      -3.94484e+00       1.50551e-04       9.20243e+01
 17.000      2.12894e+02       1.89138e+01      -3.77418e+00       1.48322e-04       9.06260e+01
 17.100      2.12819e+02       1.84335e+01      -3.59979e+00       1.46120e-04       8.92485e+01
 17.200      2.12752e+02       1.79489e+01      -3.42231e+00       1.43943e-04       8.78914e+01
 17.300      2.12694e+02       1.74611e+01      -3.24241e+00       1.41791e-04       8.65538e+01
 17.400      2.12645e+02       1.69713e+01      -3.06073e+00       1.39663e-04       8.52351e+01
 17.500      2.12604e+02       1.64809e+01      -2.87793e+00       1.37559e-04       8.39347e+01
 17.600      2.12571e+02       1.59909e+01      -2.69465e+00       1.35478e-04       8.26521e+01
 17.700      2.12546e+02       1.55026e+01      -2.51154e+00       1.33419e-04       8.13866e+01
 17.800      2.12529e+02       1.50172e+01      -2.32927e+00       1.31382e-04       8.01377e+01
 17.900      2.12519e+02       1.45360e+01      -2.14848e+00       1.29367e-04       7.89050e+01
 18.000      2.12517e+02       1.40600e+01      -1.96981e+00       1.27373e-04       7.76877e+01
 18.100      2.12523e+02       1.35907e+01      -1.79393e+00       1.25399e-04       7.64857e+01
 18.200      2.12535e+02       1.31291e+01      -1.62148e+00       1.23445e-04       7.52982e+01
 18.300      2.12555e+02       1.26764e+01      -1.45312e+00       1.21510e-04       7.41251e+01
 18.400      2.12581e+02       1.22340e+01      -1.28949e+00       1.19595e-04       7.29657e+01
 18.500      2.12614e+02       1.18029e+01      -1.13125e+00       1.17698e-04       7.18197e+01
 18.600      2.12653e+02       1.13845e+01      -9.79046e-01       1.15820e-04       7.06869e+01
 18.700      2.12699e+02       1.09798e+01      -8.33528e-01       1.13960e-04       6.95666e+01
 18.800      2.12751e+02       1.05897e+01      -6.95000e-01       1.12118e-04       6.84591e+01
 18.900      2.12809e+02       1.02138e+01      -5.63310e-01       1.10296e-04       6.73647e+01
 19.000      2.12872e+02       9.85216e+00      -4.38282e-01       1.08494e-04       6.62836e+01
 19.100      2.12940e+02       9.50454e+00      -3.19738e-01       1.06713e-04       6.52164e+01
 19.200      2.13013e+02       9.17079e+00      -2.07497e-01       1.04954e-04       6.41634e+01
 19.300      2.13089e+02       8.85076e+00      -1.01382e-01       1.03218e-04       6.31247e+01
 19.400      2.13170e+02       8.54428e+00      -1.21194e-03       1.01506e-04       6.21008e+01
 19.500      2.13253e+02       8.25119e+00       9.31914e-02       9.98172e-05       6.10918e+01
 19.600      2.13340e+02       7.97133e+00       1.82007e-01       9.81536e-05       6.00980e+01
 19.700      2.13429e+02       7.70456e+00       2.65413e-01       9.65152e-05       5.91195e+01
 19.800      2.13520e+02       7.45071e+00       3.43588e-01       9.49026e-05       5.81566e+01
 19.900      2.13614e+02       7.20962e+00       4.16714e-01       9.33161e-05       5.72094e+01
 20.000      2.13708e+02       6.98113e+00       4.84967e-01       9.17562e-05       5.62779e+01
 20.100      2.13804e+02       6.76509e+00       5.48527e-01       9.02232e-05       5.53624e+01
 20.200      2.13900e+02       6.56133e+00       6.07573e-01       8.87173e-05       5.44629e+01
 20.300      2.13996e+02       6.36971e+00       6.62283e-01       8.72389e-05       5.35794e+01
