# Data Source: NASA MERRA (version 1)
# Model Time = 2010-03-23 18:00:00
# Location = [  39.7393, -104.9900 ]
# Fields = [ Z(km), T(K), U(m/s), V(m/s), R(g/cm3), P(mbar) ]
# Ground Height = 1.589
  0.000      2.91583e+02      -2.38355e+00       4.24136e+00       1.20434e-03       1.00784e+03
  0.100      2.90942e+02      -2.37300e+00       4.21087e+00       1.19289e-03       9.96068e+02
  0.200      2.90295e+02      -2.36561e+00       4.17726e+00       1.18157e-03       9.84424e+02
  0.300      2.89623e+02      -2.37077e+00       4.13126e+00       1.17044e-03       9.72892e+02
  0.400      2.88923e+02      -2.39123e+00       4.07498e+00       1.15949e-03       9.61460e+02
  0.500      2.88227e+02      -2.41414e+00       4.03703e+00       1.14860e-03       9.50136e+02
  0.600      2.87562e+02      -2.42981e+00       4.03758e+00       1.13767e-03       9.38928e+02
  0.700      2.86904e+02      -2.45074e+00       4.04579e+00       1.12681e-03       9.27833e+02
  0.800      2.86219e+02      -2.49180e+00       4.02261e+00       1.11614e-03       9.16848e+02
  0.900      2.85527e+02      -2.53766e+00       3.97296e+00       1.10557e-03       9.05971e+02
  1.000      2.84874e+02      -2.55776e+00       3.92447e+00       1.09493e-03       8.95200e+02
  1.100      2.84272e+02      -2.53846e+00       3.89302e+00       1.08418e-03       8.84536e+02
  1.200      2.83698e+02      -2.48579e+00       3.88080e+00       1.07340e-03       8.73977e+02
  1.300      2.83126e+02      -2.40685e+00       3.88922e+00       1.06270e-03       8.63524e+02
  1.400      2.82531e+02      -2.30874e+00       3.91968e+00       1.05218e-03       8.53175e+02
  1.500      2.81887e+02      -2.19887e+00       3.97419e+00       1.04192e-03       8.42930e+02
  1.600      2.81192e+02      -2.08815e+00       4.06108e+00       1.03193e-03       8.32787e+02
  1.700      2.80458e+02      -1.98953e+00       4.19248e+00       1.02215e-03       8.22745e+02
  1.800      2.79694e+02      -1.91603e+00       4.38058e+00       1.01256e-03       8.12801e+02
  1.900      2.78911e+02      -1.88065e+00       4.63756e+00       1.00310e-03       8.02954e+02
  2.000      2.78119e+02      -1.89478e+00       4.97418e+00       9.93735e-04       7.93202e+02
  2.100      2.77321e+02      -1.95323e+00       5.38623e+00       9.84460e-04       7.83543e+02
  2.200      2.76514e+02      -2.04095e+00       5.86061e+00       9.75275e-04       7.73975e+02
  2.300      2.75699e+02      -2.14275e+00       6.38411e+00       9.66182e-04       7.64496e+02
  2.400      2.74872e+02      -2.24347e+00       6.94354e+00       9.57185e-04       7.55105e+02
  2.500      2.74032e+02      -2.32762e+00       7.52558e+00       9.48286e-04       7.45800e+02
  2.600      2.73184e+02      -2.37108e+00       8.11407e+00       9.39469e-04       7.36581e+02
  2.700      2.72339e+02      -2.33990e+00       8.68958e+00       9.30700e-04       7.27446e+02
  2.800      2.71506e+02      -2.19963e+00       9.23251e+00       9.21941e-04       7.18397e+02
  2.900      2.70697e+02      -1.91580e+00       9.72325e+00       9.13158e-04       7.09434e+02
  3.000      2.69923e+02      -1.45397e+00       1.01422e+01       9.04317e-04       7.00556e+02
  3.100      2.69191e+02      -7.92318e-01       1.04737e+01       8.95394e-04       6.91763e+02
  3.200      2.68496e+02       2.97339e-02       1.07207e+01       8.86417e-04       6.83057e+02
  3.300      2.67825e+02       9.54311e-01       1.08919e+01       8.77423e-04       6.74437e+02
  3.400      2.67168e+02       1.92354e+00       1.09961e+01       8.68451e-04       6.65904e+02
  3.500      2.66514e+02       2.87954e+00       1.10420e+01       8.59539e-04       6.57458e+02
  3.600      2.65852e+02       3.76444e+00       1.10383e+01       8.50723e-04       6.49098e+02
  3.700      2.65174e+02       4.54034e+00       1.09918e+01       8.42030e-04       6.40826e+02
  3.800      2.64477e+02       5.22712e+00       1.09040e+01       8.33463e-04       6.32639e+02
  3.900      2.63760e+02       5.85511e+00       1.07755e+01       8.25023e-04       6.24535e+02
  4.000      2.63023e+02       6.45463e+00       1.06067e+01       8.16708e-04       6.16513e+02
  4.100      2.62265e+02       7.05599e+00       1.03982e+01       8.08520e-04       6.08572e+02
  4.200      2.61484e+02       7.68951e+00       1.01505e+01       8.00456e-04       6.00710e+02
  4.300      2.60681e+02       8.37738e+00       9.86526e+00       7.92515e-04       5.92925e+02
  4.400      2.59860e+02       9.09897e+00       9.55085e+00       7.84684e-04       5.85216e+02
  4.500      2.59025e+02       9.81965e+00       9.21758e+00       7.76946e-04       5.77583e+02
  4.600      2.58181e+02       1.05048e+01       8.87584e+00       7.69286e-04       5.70025e+02
  4.700      2.57333e+02       1.11197e+01       8.53600e+00       7.61687e-04       5.62541e+02
  4.800      2.56486e+02       1.16298e+01       8.20842e+00       7.54135e-04       5.55131e+02
  4.900      2.55645e+02       1.20006e+01       7.90342e+00       7.46614e-04       5.47793e+02
  5.000      2.54814e+02       1.22190e+01       7.62724e+00       7.39114e-04       5.40527e+02
  5.100      2.53995e+02       1.23073e+01       7.37920e+00       7.31630e-04       5.33334e+02
  5.200      2.53191e+02       1.22913e+01       7.15798e+00       7.24156e-04       5.26214e+02
  5.300      2.52403e+02       1.21968e+01       6.96224e+00       7.16688e-04       5.19167e+02
  5.400      2.51634e+02       1.20495e+01       6.79067e+00       7.09222e-04       5.12193e+02
  5.500      2.50887e+02       1.18754e+01       6.64193e+00       7.01753e-04       5.05294e+02
  5.600      2.50163e+02       1.17001e+01       6.51470e+00       6.94278e-04       4.98469e+02
  5.700      2.49463e+02       1.15469e+01       6.41014e+00       6.86797e-04       4.91717e+02
  5.800      2.48783e+02       1.14337e+01       6.33449e+00       6.79320e-04       4.85039e+02
  5.900      2.48120e+02       1.13780e+01       6.29465e+00       6.71859e-04       4.78435e+02
  6.000      2.47471e+02       1.13970e+01       6.29751e+00       6.64426e-04       4.71902e+02
  6.100      2.46830e+02       1.15080e+01       6.34996e+00       6.57030e-04       4.65442e+02
  6.200      2.46195e+02       1.17283e+01       6.45889e+00       6.49682e-04       4.59052e+02
  6.300      2.45561e+02       1.20753e+01       6.63120e+00       6.42393e-04       4.52734e+02
  6.400      2.44926e+02       1.25655e+01       6.87326e+00       6.35172e-04       4.46486e+02
  6.500      2.44288e+02       1.32004e+01       7.18246e+00       6.28019e-04       4.40307e+02
  6.600      2.43648e+02       1.39693e+01       7.54861e+00       6.20931e-04       4.34199e+02
  6.700      2.43010e+02       1.48611e+01       7.96125e+00       6.13902e-04       4.28159e+02
  6.800      2.42374e+02       1.58644e+01       8.40996e+00       6.06929e-04       4.22188e+02
  6.900      2.41743e+02       1.69681e+01       8.88427e+00       6.00007e-04       4.16286e+02
  7.000      2.41118e+02       1.81609e+01       9.37376e+00       5.93132e-04       4.10452e+02
  7.100      2.40501e+02       1.94317e+01       9.86798e+00       5.86299e-04       4.04685e+02
  7.200      2.39894e+02       2.07692e+01       1.03565e+01       5.79505e-04       3.98986e+02
  7.300      2.39298e+02       2.21625e+01       1.08329e+01       5.72747e-04       3.93355e+02
  7.400      2.38712e+02       2.36015e+01       1.13000e+01       5.66031e-04       3.87789e+02
  7.500      2.38133e+02       2.50758e+01       1.17624e+01       5.59359e-04       3.82289e+02
  7.600      2.37561e+02       2.65755e+01       1.22243e+01       5.52735e-04       3.76855e+02
  7.700      2.36993e+02       2.80904e+01       1.26900e+01       5.46165e-04       3.71485e+02
  7.800      2.36428e+02       2.96103e+01       1.31638e+01       5.39650e-04       3.66179e+02
  7.900      2.35864e+02       3.11251e+01       1.36503e+01       5.33196e-04       3.60936e+02
  8.000      2.35300e+02       3.26246e+01       1.41535e+01       5.26804e-04       3.55756e+02
  8.100      2.34733e+02       3.40989e+01       1.46780e+01       5.20479e-04       3.50638e+02
  8.200      2.34163e+02       3.55375e+01       1.52264e+01       5.14224e-04       3.45582e+02
  8.300      2.33585e+02       3.69305e+01       1.57922e+01       5.08043e-04       3.40587e+02
  8.400      2.32998e+02       3.82674e+01       1.63652e+01       5.01944e-04       3.35651e+02
  8.500      2.32397e+02       3.95381e+01       1.69355e+01       4.95930e-04       3.30774e+02
  8.600      2.31779e+02       4.07323e+01       1.74931e+01       4.90007e-04       3.25955e+02
  8.700      2.31141e+02       4.18397e+01       1.80278e+01       4.84179e-04       3.21192e+02
  8.800      2.30480e+02       4.28501e+01       1.85298e+01       4.78453e-04       3.16486e+02
  8.900      2.29792e+02       4.37531e+01       1.89888e+01       4.72831e-04       3.11834e+02
  9.000      2.29075e+02       4.45386e+01       1.93951e+01       4.67319e-04       3.07236e+02
  9.100      2.28325e+02       4.51963e+01       1.97384e+01       4.61920e-04       3.02692e+02
  9.200      2.27538e+02       4.57161e+01       2.00089e+01       4.56639e-04       2.98201e+02
  9.300      2.26717e+02       4.60951e+01       2.02032e+01       4.51469e-04       2.93761e+02
  9.400      2.25869e+02       4.63396e+01       2.03262e+01       4.46395e-04       2.89372e+02
  9.500      2.25002e+02       4.64564e+01       2.03831e+01       4.41396e-04       2.85035e+02
  9.600      2.24126e+02       4.64525e+01       2.03794e+01       4.36458e-04       2.80748e+02
  9.700      2.23248e+02       4.63348e+01       2.03204e+01       4.31562e-04       2.76511e+02
  9.800      2.22376e+02       4.61102e+01       2.02116e+01       4.26692e-04       2.72323e+02
  9.900      2.21519e+02       4.57855e+01       2.00583e+01       4.21833e-04       2.68185e+02
 10.000      2.20685e+02       4.53678e+01       1.98658e+01       4.16970e-04       2.64095e+02
 10.100      2.19883e+02       4.48638e+01       1.96396e+01       4.12088e-04       2.60053e+02
 10.200      2.19120e+02       4.42806e+01       1.93850e+01       4.07171e-04       2.56060e+02
 10.300      2.18405e+02       4.36249e+01       1.91075e+01       4.02208e-04       2.52113e+02
 10.400      2.17746e+02       4.29038e+01       1.88122e+01       3.97185e-04       2.48213e+02
 10.500      2.17146e+02       4.21258e+01       1.85022e+01       3.92100e-04       2.44361e+02
 10.600      2.16605e+02       4.13011e+01       1.81778e+01       3.86959e-04       2.40556e+02
 10.700      2.16120e+02       4.04400e+01       1.78391e+01       3.81772e-04       2.36800e+02
 10.800      2.15690e+02       3.95530e+01       1.74863e+01       3.76546e-04       2.33093e+02
 10.900      2.15312e+02       3.86504e+01       1.71198e+01       3.71290e-04       2.29437e+02
 11.000      2.14985e+02       3.77424e+01       1.67395e+01       3.66010e-04       2.25831e+02
 11.100      2.14708e+02       3.68395e+01       1.63458e+01       3.60714e-04       2.22276e+02
 11.200      2.14478e+02       3.59520e+01       1.59388e+01       3.55409e-04       2.18773e+02
 11.300      2.14294e+02       3.50902e+01       1.55187e+01       3.50103e-04       2.15322e+02
 11.400      2.14153e+02       3.42645e+01       1.50857e+01       3.44802e-04       2.11922e+02
 11.500      2.14055e+02       3.34852e+01       1.46400e+01       3.39513e-04       2.08576e+02
 11.600      2.13997e+02       3.27626e+01       1.41817e+01       3.34242e-04       2.05282e+02
 11.700      2.13978e+02       3.21072e+01       1.37112e+01       3.28994e-04       2.02041e+02
 11.800      2.13996e+02       3.15291e+01       1.32285e+01       3.23777e-04       1.98853e+02
 11.900      2.14048e+02       3.10319e+01       1.27344e+01       3.18594e-04       1.95718e+02
 12.000      2.14132e+02       3.06099e+01       1.22301e+01       3.13451e-04       1.92634e+02
 12.100      2.14245e+02       3.02566e+01       1.17171e+01       3.08354e-04       1.89601e+02
 12.200      2.14384e+02       2.99654e+01       1.11967e+01       3.03306e-04       1.86619e+02
 12.300      2.14546e+02       2.97298e+01       1.06704e+01       2.98312e-04       1.83685e+02
 12.400      2.14729e+02       2.95434e+01       1.01395e+01       2.93376e-04       1.80800e+02
 12.500      2.14930e+02       2.93995e+01       9.60537e+00       2.88502e-04       1.77962e+02
 12.600      2.15145e+02       2.92917e+01       9.06946e+00       2.83693e-04       1.75171e+02
 12.700      2.15372e+02       2.92135e+01       8.53312e+00       2.78952e-04       1.72425e+02
 12.800      2.15608e+02       2.91583e+01       7.99775e+00       2.74283e-04       1.69725e+02
 12.900      2.15850e+02       2.91196e+01       7.46474e+00       2.69687e-04       1.67069e+02
 13.000      2.16096e+02       2.90909e+01       6.93546e+00       2.65168e-04       1.64456e+02
 13.100      2.16343e+02       2.90657e+01       6.41130e+00       2.60727e-04       1.61886e+02
 13.200      2.16587e+02       2.90375e+01       5.89366e+00       2.56366e-04       1.59358e+02
 13.300      2.16825e+02       2.89998e+01       5.38391e+00       2.52088e-04       1.56871e+02
 13.400      2.17056e+02       2.89459e+01       4.88346e+00       2.47893e-04       1.54425e+02
 13.500      2.17276e+02       2.88695e+01       4.39366e+00       2.43783e-04       1.52019e+02
 13.600      2.17482e+02       2.87640e+01       3.91593e+00       2.39760e-04       1.49652e+02
 13.700      2.17673e+02       2.86248e+01       3.45144e+00       2.35823e-04       1.47323e+02
 13.800      2.17848e+02       2.84522e+01       3.00085e+00       2.31970e-04       1.45033e+02
 13.900      2.18006e+02       2.82475e+01       2.56476e+00       2.28198e-04       1.42779e+02
 14.000      2.18150e+02       2.80117e+01       2.14372e+00       2.24507e-04       1.40561e+02
 14.100      2.18278e+02       2.77459e+01       1.73832e+00       2.20892e-04       1.38380e+02
 14.200      2.18390e+02       2.74514e+01       1.34915e+00       2.17353e-04       1.36233e+02
 14.300      2.18488e+02       2.71292e+01       9.76781e-01       2.13887e-04       1.34120e+02
 14.400      2.18571e+02       2.67805e+01       6.21799e-01       2.10492e-04       1.32041e+02
 14.500      2.18639e+02       2.64065e+01       2.84776e-01       2.07166e-04       1.29995e+02
 14.600      2.18693e+02       2.60082e+01      -3.37038e-02       2.03907e-04       1.27982e+02
 14.700      2.18732e+02       2.55868e+01      -3.33059e-01       2.00713e-04       1.26000e+02
 14.800      2.18757e+02       2.51435e+01      -6.12714e-01       1.97584e-04       1.24050e+02
 14.900      2.18769e+02       2.46794e+01      -8.72085e-01       1.94516e-04       1.22130e+02
 15.000      2.18766e+02       2.41956e+01      -1.11060e+00       1.91508e-04       1.20240e+02
 15.100      2.18750e+02       2.36933e+01      -1.32767e+00       1.88559e-04       1.18380e+02
 15.200      2.18720e+02       2.31736e+01      -1.52271e+00       1.85668e-04       1.16549e+02
 15.300      2.18677e+02       2.26376e+01      -1.69516e+00       1.82831e-04       1.14746e+02
 15.400      2.18621e+02       2.20866e+01      -1.84443e+00       1.80050e-04       1.12971e+02
 15.500      2.18553e+02       2.15215e+01      -1.96993e+00       1.77320e-04       1.11223e+02
 15.600      2.18471e+02       2.09436e+01      -2.07110e+00       1.74643e-04       1.09503e+02
 15.700      2.18377e+02       2.03541e+01      -2.14734e+00       1.72015e-04       1.07809e+02
 15.800      2.18270e+02       1.97539e+01      -2.19808e+00       1.69436e-04       1.06141e+02
 15.900      2.18152e+02       1.91444e+01      -2.22275e+00       1.66905e-04       1.04498e+02
 16.000      2.18021e+02       1.85266e+01      -2.22075e+00       1.64420e-04       1.02881e+02
 16.100      2.17878e+02       1.79016e+01      -2.19152e+00       1.61980e-04       1.01288e+02
 16.200      2.17724e+02       1.72707e+01      -2.13447e+00       1.59585e-04       9.97196e+01
 16.300      2.17559e+02       1.66352e+01      -2.04999e+00       1.57232e-04       9.81748e+01
 16.400      2.17383e+02       1.59969e+01      -1.94075e+00       1.54920e-04       9.66533e+01
 16.500      2.17199e+02       1.53579e+01      -1.80972e+00       1.52648e-04       9.51548e+01
 16.600      2.17007e+02       1.47202e+01      -1.65991e+00       1.50413e-04       9.36788e+01
 16.700      2.16809e+02       1.40858e+01      -1.49429e+00       1.48214e-04       9.22250e+01
 16.800      2.16606e+02       1.34567e+01      -1.31587e+00       1.46049e-04       9.07930e+01
 16.900      2.16399e+02       1.28348e+01      -1.12763e+00       1.43918e-04       8.93824e+01
 17.000      2.16190e+02       1.22223e+01      -9.32551e-01       1.41817e-04       8.79927e+01
 17.100      2.15979e+02       1.16210e+01      -7.33632e-01       1.39747e-04       8.66238e+01
 17.200      2.15769e+02       1.10329e+01      -5.33859e-01       1.37706e-04       8.52751e+01
 17.300      2.15559e+02       1.04602e+01      -3.36227e-01       1.35692e-04       8.39465e+01
 17.400      2.15352e+02       9.90463e+00      -1.43715e-01       1.33704e-04       8.26374e+01
 17.500      2.15149e+02       9.36837e+00       4.06810e-02       1.31742e-04       8.13476e+01
 17.600      2.14951e+02       8.85335e+00       2.13973e-01       1.29803e-04       8.00769e+01
 17.700      2.14760e+02       8.36159e+00       3.73172e-01       1.27887e-04       7.88248e+01
 17.800      2.14576e+02       7.89508e+00       5.15286e-01       1.25994e-04       7.75910e+01
 17.900      2.14400e+02       7.45580e+00       6.37330e-01       1.24121e-04       7.63753e+01
 18.000      2.14235e+02       7.04575e+00       7.36314e-01       1.22269e-04       7.51774e+01
 18.100      2.14081e+02       6.66694e+00       8.09246e-01       1.20435e-04       7.39969e+01
 18.200      2.13940e+02       6.32136e+00       8.53139e-01       1.18620e-04       7.28335e+01
 18.300      2.13812e+02       6.01101e+00       8.65002e-01       1.16823e-04       7.16872e+01
 18.400      2.13699e+02       5.73788e+00       8.41848e-01       1.15042e-04       7.05574e+01
 18.500      2.13603e+02       5.50387e+00       7.80818e-01       1.13278e-04       6.94440e+01
 18.600      2.13523e+02       5.30879e+00       6.82097e-01       1.11530e-04       6.83468e+01
 18.700      2.13459e+02       5.15031e+00       5.48900e-01       1.09799e-04       6.72658e+01
 18.800      2.13409e+02       5.02604e+00       3.84577e-01       1.08086e-04       6.62008e+01
 18.900      2.13372e+02       4.93356e+00       1.92466e-01       1.06391e-04       6.51518e+01
 19.000      2.13348e+02       4.87049e+00      -2.40833e-02       1.04716e-04       6.41187e+01
 19.100      2.13334e+02       4.83441e+00      -2.61725e-01       1.03062e-04       6.31015e+01
 19.200      2.13331e+02       4.82293e+00      -5.17113e-01       1.01427e-04       6.21000e+01
 19.300      2.13337e+02       4.83363e+00      -7.86897e-01       9.98143e-05       6.11141e+01
 19.400      2.13351e+02       4.86413e+00      -1.06774e+00       9.82230e-05       6.01437e+01
 19.500      2.13372e+02       4.91200e+00      -1.35629e+00       9.66539e-05       5.91887e+01
 19.600      2.13399e+02       4.97486e+00      -1.64921e+00       9.51074e-05       5.82491e+01
 19.700      2.13431e+02       5.05030e+00      -1.94314e+00       9.35839e-05       5.73245e+01
 19.800      2.13467e+02       5.13591e+00      -2.23474e+00       9.20839e-05       5.64151e+01
 19.900      2.13505e+02       5.22930e+00      -2.52067e+00       9.06074e-05       5.55206e+01
 20.000      2.13546e+02       5.32806e+00      -2.79757e+00       8.91549e-05       5.46409e+01
 20.100      2.13587e+02       5.42978e+00      -3.06211e+00       8.77265e-05       5.37758e+01
 20.200      2.13627e+02       5.53207e+00      -3.31094e+00       8.63226e-05       5.29253e+01
 20.300      2.13667e+02       5.63251e+00      -3.54071e+00       8.49431e-05       5.20891e+01
