# Data Source: NASA GEOS5 Near-Real-Time
# Model Time = 2010-12-21 18:00:00
# Location = [  39.7393, -104.9900 ]
# Fields = [ Z(km), T(K), U(m/s), V(m/s), R(g/cm3), P(mbar) ]
# Ground Height = 1.589
  0.000      2.87812e+02       2.23688e+00       2.83562e+00       1.22681e-03       1.01338e+03
  0.100      2.87185e+02       2.21592e+00       2.84759e+00       1.21493e-03       1.00137e+03
  0.200      2.86561e+02       2.19284e+00       2.85972e+00       1.20315e-03       9.89507e+02
  0.300      2.85916e+02       2.18609e+00       2.87069e+00       1.19157e-03       9.77776e+02
  0.400      2.85235e+02       2.21032e+00       2.87975e+00       1.18023e-03       9.66167e+02
  0.500      2.84553e+02       2.24821e+00       2.89076e+00       1.16898e-03       9.54671e+02
  0.600      2.83929e+02       2.26753e+00       2.90909e+00       1.15758e-03       9.43282e+02
  0.700      2.83337e+02       2.25099e+00       2.92791e+00       1.14612e-03       9.31999e+02
  0.800      2.82685e+02       2.19365e+00       2.93113e+00       1.13499e-03       9.20829e+02
  0.900      2.81953e+02       2.10987e+00       2.91719e+00       1.12427e-03       9.09770e+02
  1.000      2.81216e+02       2.04040e+00       2.90514e+00       1.11365e-03       8.98812e+02
  1.100      2.80536e+02       2.02018e+00       2.90663e+00       1.10286e-03       8.87954e+02
  1.200      2.79925e+02       2.06168e+00       2.90741e+00       1.09189e-03       8.77204e+02
  1.300      2.79378e+02       2.16565e+00       2.88922e+00       1.08077e-03       8.66573e+02
  1.400      2.78853e+02       2.27494e+00       2.83852e+00       1.06966e-03       8.56056e+02
  1.500      2.78294e+02       2.30748e+00       2.74436e+00       1.05877e-03       8.45642e+02
  1.600      2.77656e+02       2.23219e+00       2.61095e+00       1.04826e-03       8.35327e+02
  1.700      2.76917e+02       2.08113e+00       2.46111e+00       1.03821e-03       8.25116e+02
  1.800      2.76070e+02       1.90069e+00       2.33156e+00       1.02864e-03       8.15010e+02
  1.900      2.75185e+02       1.78065e+00       2.31182e+00       1.01927e-03       8.05002e+02
  2.000      2.74347e+02       1.81927e+00       2.49925e+00       1.00979e-03       7.95083e+02
  2.100      2.73622e+02       2.05122e+00       2.85659e+00       9.99948e-04       7.85254e+02
  2.200      2.73055e+02       2.44705e+00       3.21077e+00       9.89603e-04       7.75521e+02
  2.300      2.72673e+02       2.97035e+00       3.41647e+00       9.78689e-04       7.65893e+02
  2.400      2.72408e+02       3.56552e+00       3.48695e+00       9.67467e-04       7.56375e+02
  2.500      2.72169e+02       4.17237e+00       3.48210e+00       9.56278e-04       7.46973e+02
  2.600      2.71909e+02       4.80246e+00       3.46119e+00       9.45293e-04       7.37686e+02
  2.700      2.71650e+02       5.58158e+00       3.48267e+00       9.34421e-04       7.28507e+02
  2.800      2.71418e+02       6.63860e+00       3.59983e+00       9.23564e-04       7.19428e+02
  2.900      2.71202e+02       8.00244e+00       3.79513e+00       9.12766e-04       7.10450e+02
  3.000      2.70960e+02       9.62801e+00       3.99857e+00       9.02167e-04       7.01575e+02
  3.100      2.70657e+02       1.14612e+01       4.14563e+00       8.91889e-04       6.92807e+02
  3.200      2.70292e+02       1.33970e+01       4.21792e+00       8.81923e-04       6.84143e+02
  3.300      2.69879e+02       1.53091e+01       4.21657e+00       8.72214e-04       6.75575e+02
  3.400      2.69431e+02       1.70888e+01       4.14464e+00       8.62704e-04       6.67099e+02
  3.500      2.68967e+02       1.87142e+01       4.01442e+00       8.53329e-04       6.58715e+02
  3.600      2.68508e+02       2.01901e+01       3.84104e+00       8.44028e-04       6.50422e+02
  3.700      2.68072e+02       2.15147e+01       3.63974e+00       8.34741e-04       6.42221e+02
  3.800      2.67675e+02       2.26558e+01       3.42646e+00       8.25425e-04       6.34113e+02
  3.900      2.67329e+02       2.35723e+01       3.21734e+00       8.16041e-04       6.26095e+02
  4.000      2.67041e+02       2.42339e+01       3.02727e+00       8.06579e-04       6.18167e+02
  4.100      2.66764e+02       2.46763e+01       2.86360e+00       7.97179e-04       6.10330e+02
  4.200      2.66434e+02       2.49601e+01       2.73085e+00       7.88032e-04       6.02582e+02
  4.300      2.65994e+02       2.51427e+01       2.63266e+00       7.79303e-04       5.94922e+02
  4.400      2.65446e+02       2.52438e+01       2.56269e+00       7.70969e-04       5.87348e+02
  4.500      2.64836e+02       2.52592e+01       2.50806e+00       7.62888e-04       5.79855e+02
  4.600      2.64210e+02       2.51843e+01       2.45600e+00       7.54919e-04       5.72441e+02
  4.700      2.63592e+02       2.50273e+01       2.40596e+00       7.46988e-04       5.65103e+02
  4.800      2.62978e+02       2.48152e+01       2.37564e+00       7.39108e-04       5.57840e+02
  4.900      2.62361e+02       2.45768e+01       2.38421e+00       7.31301e-04       5.50653e+02
  5.000      2.61734e+02       2.43386e+01       2.44734e+00       7.23585e-04       5.43541e+02
  5.100      2.61094e+02       2.41161e+01       2.56196e+00       7.15969e-04       5.36504e+02
  5.200      2.60437e+02       2.39210e+01       2.71887e+00       7.08459e-04       5.29541e+02
  5.300      2.59763e+02       2.37652e+01       2.90898e+00       7.01060e-04       5.22653e+02
  5.400      2.59072e+02       2.36558e+01       3.12890e+00       6.93762e-04       5.15838e+02
  5.500      2.58377e+02       2.35933e+01       3.38390e+00       6.86534e-04       5.09094e+02
  5.600      2.57689e+02       2.35778e+01       3.67999e+00       6.79343e-04       5.02421e+02
  5.700      2.57020e+02       2.36101e+01       4.02308e+00       6.72160e-04       4.95817e+02
  5.800      2.56368e+02       2.37052e+01       4.41802e+00       6.64985e-04       4.89281e+02
  5.900      2.55729e+02       2.38879e+01       4.86889e+00       6.57836e-04       4.82814e+02
  6.000      2.55094e+02       2.41831e+01       5.37979e+00       6.50734e-04       4.76415e+02
  6.100      2.54458e+02       2.46131e+01       5.95317e+00       6.43694e-04       4.70086e+02
  6.200      2.53828e+02       2.51795e+01       6.57856e+00       6.36699e-04       4.63826e+02
  6.300      2.53215e+02       2.58739e+01       7.23934e+00       6.29722e-04       4.57635e+02
  6.400      2.52631e+02       2.66879e+01       7.91886e+00       6.22734e-04       4.51514e+02
  6.500      2.52087e+02       2.76119e+01       8.60087e+00       6.15713e-04       4.45462e+02
  6.600      2.51580e+02       2.86288e+01       9.27295e+00       6.08666e-04       4.39479e+02
  6.700      2.51102e+02       2.97170e+01       9.92464e+00       6.01621e-04       4.33565e+02
  6.800      2.50641e+02       3.08552e+01       1.05455e+01       5.94599e-04       4.27719e+02
  6.900      2.50190e+02       3.20220e+01       1.11253e+01       5.87626e-04       4.21941e+02
  7.000      2.49743e+02       3.32021e+01       1.16601e+01       5.80711e-04       4.16231e+02
  7.100      2.49300e+02       3.43851e+01       1.21515e+01       5.73856e-04       4.10589e+02
  7.200      2.48861e+02       3.55607e+01       1.26013e+01       5.67062e-04       4.05013e+02
  7.300      2.48425e+02       3.67190e+01       1.30113e+01       5.60330e-04       3.99504e+02
  7.400      2.47990e+02       3.78494e+01       1.33832e+01       5.53665e-04       3.94062e+02
  7.500      2.47546e+02       3.89407e+01       1.37182e+01       5.47090e-04       3.88684e+02
  7.600      2.47079e+02       3.99811e+01       1.40175e+01       5.40628e-04       3.83369e+02
  7.700      2.46579e+02       4.09593e+01       1.42823e+01       5.34302e-04       3.78116e+02
  7.800      2.46034e+02       4.18637e+01       1.45138e+01       5.28133e-04       3.72924e+02
  7.900      2.45439e+02       4.26881e+01       1.47154e+01       5.22127e-04       3.67791e+02
  8.000      2.44797e+02       4.34332e+01       1.48934e+01       5.16271e-04       3.62716e+02
  8.100      2.44115e+02       4.40997e+01       1.50544e+01       5.10551e-04       3.57697e+02
  8.200      2.43396e+02       4.46887e+01       1.52048e+01       5.04955e-04       3.52734e+02
  8.300      2.42646e+02       4.52011e+01       1.53509e+01       4.99468e-04       3.47826e+02
  8.400      2.41869e+02       4.56397e+01       1.54956e+01       4.94079e-04       3.42971e+02
  8.500      2.41071e+02       4.60090e+01       1.56373e+01       4.88773e-04       3.38169e+02
  8.600      2.40258e+02       4.63138e+01       1.57741e+01       4.83538e-04       3.33419e+02
  8.700      2.39435e+02       4.65587e+01       1.59043e+01       4.78362e-04       3.28720e+02
  8.800      2.38609e+02       4.67486e+01       1.60261e+01       4.73231e-04       3.24072e+02
  8.900      2.37781e+02       4.68912e+01       1.61393e+01       4.68140e-04       3.19474e+02
  9.000      2.36949e+02       4.70016e+01       1.62472e+01       4.63094e-04       3.14924e+02
  9.100      2.36108e+02       4.70957e+01       1.63535e+01       4.58102e-04       3.10424e+02
  9.200      2.35255e+02       4.71894e+01       1.64619e+01       4.53171e-04       3.05972e+02
  9.300      2.34384e+02       4.72986e+01       1.65762e+01       4.48307e-04       3.01568e+02
  9.400      2.33492e+02       4.74382e+01       1.67001e+01       4.43517e-04       2.97211e+02
  9.500      2.32582e+02       4.76098e+01       1.68377e+01       4.38795e-04       2.92900e+02
  9.600      2.31661e+02       4.78056e+01       1.69932e+01       4.34126e-04       2.88636e+02
  9.700      2.30735e+02       4.80178e+01       1.71708e+01       4.29498e-04       2.84418e+02
  9.800      2.29812e+02       4.82386e+01       1.73748e+01       4.24897e-04       2.80246e+02
  9.900      2.28899e+02       4.84602e+01       1.76094e+01       4.20309e-04       2.76118e+02
 10.000      2.28002e+02       4.86754e+01       1.78775e+01       4.15723e-04       2.72035e+02
 10.100      2.27123e+02       4.88846e+01       1.81685e+01       4.11138e-04       2.67997e+02
 10.200      2.26260e+02       4.90923e+01       1.84643e+01       4.06556e-04       2.64004e+02
 10.300      2.25412e+02       4.93030e+01       1.87472e+01       4.01981e-04       2.60055e+02
 10.400      2.24578e+02       4.95211e+01       1.89989e+01       3.97417e-04       2.56151e+02
 10.500      2.23757e+02       4.97511e+01       1.92016e+01       3.92866e-04       2.52291e+02
 10.600      2.22946e+02       4.99973e+01       1.93376e+01       3.88331e-04       2.48476e+02
 10.700      2.22146e+02       5.02612e+01       1.94086e+01       3.83816e-04       2.44705e+02
 10.800      2.21356e+02       5.05398e+01       1.94408e+01       3.79319e-04       2.40979e+02
 10.900      2.20577e+02       5.08301e+01       1.94622e+01       3.74842e-04       2.37296e+02
 11.000      2.19809e+02       5.11291e+01       1.95005e+01       3.70384e-04       2.33657e+02
 11.100      2.19051e+02       5.14336e+01       1.95836e+01       3.65947e-04       2.30062e+02
 11.200      2.18303e+02       5.17406e+01       1.97396e+01       3.61530e-04       2.26510e+02
 11.300      2.17567e+02       5.20470e+01       1.99946e+01       3.57134e-04       2.23001e+02
 11.400      2.16842e+02       5.23489e+01       2.03492e+01       3.52759e-04       2.19535e+02
 11.500      2.16128e+02       5.26416e+01       2.07823e+01       3.48406e-04       2.16111e+02
 11.600      2.15425e+02       5.29206e+01       2.12720e+01       3.44074e-04       2.12731e+02
 11.700      2.14735e+02       5.31812e+01       2.17967e+01       3.39764e-04       2.09393e+02
 11.800      2.14057e+02       5.34188e+01       2.23346e+01       3.35476e-04       2.06097e+02
 11.900      2.13391e+02       5.36287e+01       2.28639e+01       3.31211e-04       2.02844e+02
 12.000      2.12738e+02       5.38064e+01       2.33629e+01       3.26968e-04       1.99633e+02
 12.100      2.12098e+02       5.39487e+01       2.38101e+01       3.22749e-04       1.96464e+02
 12.200      2.11469e+02       5.40568e+01       2.41848e+01       3.18556e-04       1.93336e+02
 12.300      2.10847e+02       5.41327e+01       2.44664e+01       3.14392e-04       1.90249e+02
 12.400      2.10232e+02       5.41781e+01       2.46344e+01       3.10260e-04       1.87201e+02
 12.500      2.09622e+02       5.41951e+01       2.46680e+01       3.06164e-04       1.84192e+02
 12.600      2.09012e+02       5.41855e+01       2.45469e+01       3.02105e-04       1.81222e+02
 12.700      2.08403e+02       5.41513e+01       2.42503e+01       2.98086e-04       1.78290e+02
 12.800      2.07790e+02       5.40944e+01       2.37578e+01       2.94109e-04       1.75395e+02
 12.900      2.07174e+02       5.40153e+01       2.30560e+01       2.90177e-04       1.72536e+02
 13.000      2.06562e+02       5.39069e+01       2.21764e+01       2.86279e-04       1.69715e+02
 13.100      2.05963e+02       5.37588e+01       2.11671e+01       2.82404e-04       1.66933e+02
 13.200      2.05388e+02       5.35608e+01       2.00762e+01       2.78542e-04       1.64190e+02
 13.300      2.04846e+02       5.33026e+01       1.89519e+01       2.74680e-04       1.61487e+02
 13.400      2.04349e+02       5.29739e+01       1.78423e+01       2.70810e-04       1.58825e+02
 13.500      2.03906e+02       5.25645e+01       1.67955e+01       2.66921e-04       1.56205e+02
 13.600      2.03527e+02       5.20642e+01       1.58597e+01       2.63005e-04       1.53627e+02
 13.700      2.03222e+02       5.14626e+01       1.50831e+01       2.59052e-04       1.51092e+02
 13.800      2.03002e+02       5.07503e+01       1.45114e+01       2.55056e-04       1.48599e+02
 13.900      2.02864e+02       4.99325e+01       1.41490e+01       2.51021e-04       1.46150e+02
 14.000      2.02801e+02       4.90267e+01       1.39655e+01       2.46961e-04       1.43741e+02
 14.100      2.02801e+02       4.80507e+01       1.39292e+01       2.42890e-04       1.41371e+02
 14.200      2.02855e+02       4.70223e+01       1.40086e+01       2.38820e-04       1.39039e+02
 14.300      2.02953e+02       4.59595e+01       1.41721e+01       2.34762e-04       1.36743e+02
 14.400      2.03086e+02       4.48801e+01       1.43881e+01       2.30730e-04       1.34482e+02
 14.500      2.03243e+02       4.38020e+01       1.46250e+01       2.26733e-04       1.32255e+02
 14.600      2.03415e+02       4.27429e+01       1.48512e+01       2.22781e-04       1.30060e+02
 14.700      2.03592e+02       4.17208e+01       1.50351e+01       2.18883e-04       1.27896e+02
 14.800      2.03765e+02       4.07536e+01       1.51452e+01       2.15049e-04       1.25762e+02
 14.900      2.03923e+02       3.98579e+01       1.51517e+01       2.11285e-04       1.23657e+02
 15.000      2.04065e+02       3.90365e+01       1.50487e+01       2.07594e-04       1.21581e+02
 15.100      2.04192e+02       3.82820e+01       1.48469e+01       2.03975e-04       1.19536e+02
 15.200      2.04305e+02       3.75870e+01       1.45574e+01       2.00429e-04       1.17523e+02
 15.300      2.04408e+02       3.69443e+01       1.41911e+01       1.96952e-04       1.15542e+02
 15.400      2.04501e+02       3.63462e+01       1.37590e+01       1.93546e-04       1.13596e+02
 15.500      2.04586e+02       3.57855e+01       1.32722e+01       1.90210e-04       1.11684e+02
 15.600      2.04665e+02       3.52547e+01       1.27416e+01       1.86941e-04       1.09807e+02
 15.700      2.04741e+02       3.47465e+01       1.21783e+01       1.83740e-04       1.07967e+02
 15.800      2.04815e+02       3.42533e+01       1.15933e+01       1.80606e-04       1.06164e+02
 15.900      2.04888e+02       3.37678e+01       1.09976e+01       1.77538e-04       1.04398e+02
 16.000      2.04964e+02       3.32825e+01       1.04021e+01       1.74535e-04       1.02669e+02
 16.100      2.05043e+02       3.27901e+01       9.81795e+00       1.71596e-04       1.00979e+02
 16.200      2.05127e+02       3.22833e+01       9.25595e+00       1.68720e-04       9.93281e+01
 16.300      2.05218e+02       3.17583e+01       8.72189e+00       1.65906e-04       9.77146e+01
 16.400      2.05314e+02       3.12161e+01       8.21505e+00       1.63152e-04       9.61373e+01
 16.500      2.05416e+02       3.06578e+01       7.73431e+00       1.60453e-04       9.45941e+01
 16.600      2.05522e+02       3.00847e+01       7.27855e+00       1.57809e-04       9.30835e+01
 16.700      2.05632e+02       2.94979e+01       6.84666e+00       1.55218e-04       9.16038e+01
 16.800      2.05746e+02       2.88986e+01       6.43751e+00       1.52676e-04       9.01534e+01
 16.900      2.05862e+02       2.82880e+01       6.04997e+00       1.50181e-04       8.87308e+01
 17.000      2.05981e+02       2.76673e+01       5.68294e+00       1.47732e-04       8.73345e+01
 17.100      2.06102e+02       2.70378e+01       5.33528e+00       1.45328e-04       8.59632e+01
 17.200      2.06224e+02       2.64005e+01       5.00588e+00       1.42965e-04       8.46155e+01
 17.300      2.06347e+02       2.57567e+01       4.69362e+00       1.40642e-04       8.32903e+01
 17.400      2.06469e+02       2.51075e+01       4.39738e+00       1.38358e-04       8.19864e+01
 17.500      2.06591e+02       2.44542e+01       4.11602e+00       1.36111e-04       8.07026e+01
 17.600      2.06712e+02       2.37980e+01       3.84845e+00       1.33900e-04       7.94378e+01
 17.700      2.06832e+02       2.31400e+01       3.59353e+00       1.31722e-04       7.81911e+01
 17.800      2.06949e+02       2.24815e+01       3.35014e+00       1.29577e-04       7.69614e+01
 17.900      2.07063e+02       2.18236e+01       3.11716e+00       1.27463e-04       7.57478e+01
 18.000      2.07174e+02       2.11675e+01       2.89348e+00       1.25380e-04       7.45495e+01
 18.100      2.07281e+02       2.05145e+01       2.67796e+00       1.23325e-04       7.33657e+01
 18.200      2.07384e+02       1.98656e+01       2.46949e+00       1.21298e-04       7.21955e+01
 18.300      2.07481e+02       1.92221e+01       2.26696e+00       1.19297e-04       7.10382e+01
 18.400      2.07573e+02       1.85853e+01       2.06923e+00       1.17322e-04       6.98932e+01
 18.500      2.07659e+02       1.79562e+01       1.87549e+00       1.15373e-04       6.87599e+01
 18.600      2.07739e+02       1.73363e+01       1.68584e+00       1.13448e-04       6.76389e+01
 18.700      2.07813e+02       1.67270e+01       1.50053e+00       1.11550e-04       6.65308e+01
 18.800      2.07880e+02       1.61297e+01       1.31984e+00       1.09678e-04       6.54359e+01
 18.900      2.07942e+02       1.55456e+01       1.14402e+00       1.07834e-04       6.43548e+01
 19.000      2.07998e+02       1.49763e+01       9.73342e-01       1.06018e-04       6.32880e+01
 19.100      2.08048e+02       1.44230e+01       8.08073e-01       1.04230e-04       6.22357e+01
 19.200      2.08092e+02       1.38872e+01       6.48476e-01       1.02471e-04       6.11984e+01
 19.300      2.08130e+02       1.33702e+01       4.94820e-01       1.00742e-04       6.01764e+01
 19.400      2.08163e+02       1.28735e+01       3.47363e-01       9.90412e-05       5.91700e+01
 19.500      2.08190e+02       1.23983e+01       2.06373e-01       9.73706e-05       5.81794e+01
 19.600      2.08211e+02       1.19461e+01       7.21158e-02       9.57298e-05       5.72049e+01
 19.700      2.08227e+02       1.15183e+01      -5.51442e-02       9.41192e-05       5.62468e+01
 19.800      2.08238e+02       1.11163e+01      -1.75140e-01       9.25389e-05       5.53051e+01
 19.900      2.08242e+02       1.07413e+01      -2.87610e-01       9.09889e-05       5.43800e+01
 20.000      2.08242e+02       1.03949e+01      -3.92289e-01       8.94694e-05       5.34717e+01
 20.100      2.08236e+02       1.00783e+01      -4.88910e-01       8.79804e-05       5.25803e+01
 20.200      2.08224e+02       9.79299e+00      -5.77209e-01       8.65219e-05       5.17058e+01
 20.300      2.08208e+02       9.54033e+00      -6.56919e-01       8.50939e-05       5.08484e+01
