# Data Source: NASA GEOS5 Near-Real-Time
# Model Time = 2010-02-03 18:00:00
# Location = [  39.7393, -104.9900 ]
# Fields = [ Z(km), T(K), U(m/s), V(m/s), R(g/cm3), P(mbar) ]
# Ground Height = 1.589
  0.000      2.89636e+02      -1.32792e+00       1.15927e+00       1.21652e-03       1.01124e+03
  0.100      2.88978e+02      -1.31879e+00       1.16506e+00       1.20497e-03       9.99360e+02
  0.200      2.88320e+02      -1.31019e+00       1.17034e+00       1.19353e-03       9.87617e+02
  0.300      2.87656e+02      -1.31187e+00       1.16576e+00       1.18221e-03       9.75997e+02
  0.400      2.86985e+02      -1.33258e+00       1.14701e+00       1.17100e-03       9.64487e+02
  0.500      2.86330e+02      -1.37569e+00       1.13612e+00       1.15980e-03       9.53085e+02
  0.600      2.85718e+02      -1.44184e+00       1.15860e+00       1.14852e-03       9.41794e+02
  0.700      2.85111e+02      -1.52232e+00       1.19312e+00       1.13730e-03       9.30614e+02
  0.800      2.84445e+02      -1.60311e+00       1.19449e+00       1.12640e-03       9.19541e+02
  0.900      2.83724e+02      -1.66559e+00       1.15911e+00       1.11579e-03       9.08574e+02
  1.000      2.83025e+02      -1.68656e+00       1.12579e+00       1.10517e-03       8.97713e+02
  1.100      2.82397e+02      -1.65486e+00       1.11995e+00       1.09436e-03       8.86959e+02
  1.200      2.81814e+02      -1.58580e+00       1.13401e+00       1.08346e-03       8.76310e+02
  1.300      2.81243e+02      -1.49812e+00       1.15605e+00       1.07260e-03       8.65766e+02
  1.400      2.80649e+02      -1.41058e+00       1.17420e+00       1.06191e-03       8.55325e+02
  1.500      2.80000e+02      -1.34191e+00       1.17715e+00       1.05150e-03       8.44988e+02
  1.600      2.79290e+02      -1.30999e+00       1.16885e+00       1.04141e-03       8.34752e+02
  1.700      2.78543e+02      -1.33188e+00       1.16900e+00       1.03152e-03       8.24618e+02
  1.800      2.77781e+02      -1.42460e+00       1.19803e+00       1.02176e-03       8.14583e+02
  1.900      2.77030e+02      -1.60516e+00       1.27638e+00       1.01204e-03       8.04646e+02
  2.000      2.76311e+02      -1.88900e+00       1.42354e+00       1.00226e-03       7.94806e+02
  2.100      2.75631e+02      -2.26011e+00       1.63994e+00       9.92417e-04       7.85063e+02
  2.200      2.74979e+02      -2.67332e+00       1.90836e+00       9.82544e-04       7.75415e+02
  2.300      2.74344e+02      -3.08235e+00       2.21088e+00       9.72685e-04       7.65861e+02
  2.400      2.73715e+02      -3.44093e+00       2.52962e+00       9.62879e-04       7.56402e+02
  2.500      2.73081e+02      -3.70314e+00       2.84670e+00       9.53165e-04       7.47035e+02
  2.600      2.72437e+02      -3.84723e+00       3.14607e+00       9.43557e-04       7.37762e+02
  2.700      2.71791e+02      -3.89058e+00       3.41462e+00       9.34029e-04       7.28581e+02
  2.800      2.71152e+02      -3.85408e+00       3.63950e+00       9.24552e-04       7.19493e+02
  2.900      2.70528e+02      -3.75864e+00       3.80788e+00       9.15101e-04       7.10499e+02
  3.000      2.69927e+02      -3.62517e+00       3.90690e+00       9.05648e-04       7.01598e+02
  3.100      2.69356e+02      -3.47268e+00       3.92692e+00       8.96176e-04       6.92791e+02
  3.200      2.68806e+02      -3.30684e+00       3.88038e+00       8.86715e-04       6.84076e+02
  3.300      2.68261e+02      -3.12769e+00       3.78915e+00       8.77315e-04       6.75452e+02
  3.400      2.67706e+02      -2.93525e+00       3.67509e+00       8.68024e-04       6.66917e+02
  3.500      2.67126e+02      -2.72953e+00       3.56010e+00       8.58891e-04       6.58470e+02
  3.600      2.66505e+02      -2.51055e+00       3.46605e+00       8.49961e-04       6.50110e+02
  3.700      2.65834e+02      -2.27778e+00       3.41113e+00       8.41260e-04       6.41835e+02
  3.800      2.65124e+02      -2.02838e+00       3.39808e+00       8.32751e-04       6.33645e+02
  3.900      2.64391e+02      -1.75894e+00       3.42563e+00       8.24376e-04       6.25539e+02
  4.000      2.63653e+02      -1.46604e+00       3.49253e+00       8.16081e-04       6.17516e+02
  4.100      2.62926e+02      -1.14625e+00       3.59751e+00       8.07815e-04       6.09575e+02
  4.200      2.62227e+02      -7.96148e-01       3.73931e+00       7.99526e-04       6.01717e+02
  4.300      2.61571e+02      -4.12835e-01       3.91651e+00       7.91171e-04       5.93940e+02
  4.400      2.60954e+02       2.51103e-03       4.12643e+00       7.82766e-04       5.86245e+02
  4.500      2.60364e+02       4.46784e-01       4.36582e+00       7.74352e-04       5.78630e+02
  4.600      2.59787e+02       9.16861e-01       4.63143e+00       7.65968e-04       5.71097e+02
  4.700      2.59211e+02       1.40962e+00       4.91998e+00       7.57652e-04       5.63644e+02
  4.800      2.58624e+02       1.92195e+00       5.22821e+00       7.49441e-04       5.56272e+02
  4.900      2.58012e+02       2.45072e+00       5.55287e+00       7.41371e-04       5.48981e+02
  5.000      2.57368e+02       2.99462e+00       5.88973e+00       7.33463e-04       5.41770e+02
  5.100      2.56697e+02       3.55711e+00       6.23207e+00       7.25701e-04       5.34637e+02
  5.200      2.56003e+02       4.14241e+00       6.57275e+00       7.18063e-04       5.27582e+02
  5.300      2.55294e+02       4.75477e+00       6.90463e+00       7.10530e-04       5.20601e+02
  5.400      2.54575e+02       5.39841e+00       7.22058e+00       7.03082e-04       5.13694e+02
  5.500      2.53854e+02       6.07755e+00       7.51345e+00       6.95699e-04       5.06859e+02
  5.600      2.53135e+02       6.79645e+00       7.77612e+00       6.88362e-04       5.00094e+02
  5.700      2.52425e+02       7.55568e+00       8.00458e+00       6.81058e-04       4.93399e+02
  5.800      2.51724e+02       8.34065e+00       8.20800e+00       6.73785e-04       4.86774e+02
  5.900      2.51030e+02       9.13280e+00       8.39894e+00       6.66546e-04       4.80218e+02
  6.000      2.50345e+02       9.91357e+00       8.58997e+00       6.59343e-04       4.73731e+02
  6.100      2.49667e+02       1.06644e+01       8.79368e+00       6.52180e-04       4.67315e+02
  6.200      2.48995e+02       1.13667e+01       9.02264e+00       6.45059e-04       4.60969e+02
  6.300      2.48329e+02       1.20020e+01       9.28942e+00       6.37982e-04       4.54693e+02
  6.400      2.47669e+02       1.25518e+01       9.60651e+00       6.30952e-04       4.48488e+02
  6.500      2.47013e+02       1.30093e+01       9.97529e+00       6.23973e-04       4.42352e+02
  6.600      2.46358e+02       1.33909e+01       1.03752e+01       6.17052e-04       4.36285e+02
  6.700      2.45700e+02       1.37156e+01       1.07833e+01       6.10196e-04       4.30286e+02
  6.800      2.45036e+02       1.40024e+01       1.11764e+01       6.03415e-04       4.24354e+02
  6.900      2.44362e+02       1.42705e+01       1.15315e+01       5.96713e-04       4.18487e+02
  7.000      2.43676e+02       1.45387e+01       1.18255e+01       5.90099e-04       4.12685e+02
  7.100      2.42972e+02       1.48263e+01       1.20353e+01       5.83579e-04       4.06948e+02
  7.200      2.42249e+02       1.51522e+01       1.21379e+01       5.77160e-04       4.01273e+02
  7.300      2.41503e+02       1.55329e+01       1.21152e+01       5.70846e-04       3.95660e+02
  7.400      2.40734e+02       1.59647e+01       1.19896e+01       5.64633e-04       3.90109e+02
  7.500      2.39947e+02       1.64341e+01       1.18028e+01       5.58512e-04       3.84618e+02
  7.600      2.39144e+02       1.69276e+01       1.15969e+01       5.52474e-04       3.79188e+02
  7.700      2.38329e+02       1.74317e+01       1.14136e+01       5.46512e-04       3.73817e+02
  7.800      2.37504e+02       1.79327e+01       1.12949e+01       5.40616e-04       3.68504e+02
  7.900      2.36673e+02       1.84172e+01       1.12828e+01       5.34780e-04       3.63250e+02
  8.000      2.35839e+02       1.88716e+01       1.14191e+01       5.28995e-04       3.58054e+02
  8.100      2.35004e+02       1.92824e+01       1.17458e+01       5.23253e-04       3.52914e+02
  8.200      2.34172e+02       1.96363e+01       1.23036e+01       5.17548e-04       3.47831e+02
  8.300      2.33345e+02       1.99299e+01       1.30969e+01       5.11877e-04       3.42804e+02
  8.400      2.32522e+02       2.01715e+01       1.40856e+01       5.06238e-04       3.37832e+02
  8.500      2.31704e+02       2.03703e+01       1.52272e+01       5.00632e-04       3.32915e+02
  8.600      2.30890e+02       2.05354e+01       1.64792e+01       4.95060e-04       3.28053e+02
  8.700      2.30079e+02       2.06759e+01       1.77989e+01       4.89522e-04       3.23244e+02
  8.800      2.29272e+02       2.08009e+01       1.91438e+01       4.84018e-04       3.18489e+02
  8.900      2.28469e+02       2.09194e+01       2.04713e+01       4.78549e-04       3.13787e+02
  9.000      2.27669e+02       2.10406e+01       2.17388e+01       4.73114e-04       3.09138e+02
  9.100      2.26872e+02       2.11736e+01       2.29039e+01       4.67715e-04       3.04540e+02
  9.200      2.26078e+02       2.13275e+01       2.39238e+01       4.62351e-04       2.99994e+02
  9.300      2.25288e+02       2.15107e+01       2.47686e+01       4.57022e-04       2.95499e+02
  9.400      2.24501e+02       2.17287e+01       2.54584e+01       4.51727e-04       2.91056e+02
  9.500      2.23720e+02       2.19863e+01       2.60256e+01       4.46462e-04       2.86663e+02
  9.600      2.22947e+02       2.22884e+01       2.65029e+01       4.41225e-04       2.82321e+02
  9.700      2.22183e+02       2.26398e+01       2.69226e+01       4.36014e-04       2.78030e+02
  9.800      2.21429e+02       2.30453e+01       2.73174e+01       4.30826e-04       2.73790e+02
  9.900      2.20686e+02       2.35098e+01       2.77197e+01       4.25660e-04       2.69601e+02
 10.000      2.19958e+02       2.40380e+01       2.81621e+01       4.20513e-04       2.65461e+02
 10.100      2.19244e+02       2.46348e+01       2.86771e+01       4.15384e-04       2.61372e+02
 10.200      2.18547e+02       2.53051e+01       2.92971e+01       4.10270e-04       2.57333e+02
 10.300      2.17868e+02       2.60537e+01       3.00549e+01       4.05169e-04       2.53344e+02
 10.400      2.17208e+02       2.68853e+01       3.09827e+01       4.00080e-04       2.49404e+02
 10.500      2.16570e+02       2.77979e+01       3.20943e+01       3.95000e-04       2.45515e+02
 10.600      2.15957e+02       2.87720e+01       3.33557e+01       3.89926e-04       2.41675e+02
 10.700      2.15373e+02       2.97851e+01       3.47250e+01       3.84853e-04       2.37886e+02
 10.800      2.14821e+02       3.08150e+01       3.61606e+01       3.79779e-04       2.34147e+02
 10.900      2.14305e+02       3.18393e+01       3.76208e+01       3.74699e-04       2.30461e+02
 11.000      2.13829e+02       3.28356e+01       3.90638e+01       3.69610e-04       2.26825e+02
 11.100      2.13395e+02       3.37816e+01       4.04480e+01       3.64510e-04       2.23242e+02
 11.200      2.13009e+02       3.46550e+01       4.17317e+01       3.59395e-04       2.19711e+02
 11.300      2.12673e+02       3.54333e+01       4.28731e+01       3.54263e-04       2.16233e+02
 11.400      2.12392e+02       3.60942e+01       4.38306e+01       3.49113e-04       2.12806e+02
 11.500      2.12168e+02       3.66155e+01       4.45624e+01       3.43941e-04       2.09433e+02
 11.600      2.12005e+02       3.69747e+01       4.50269e+01       3.38746e-04       2.06112e+02
 11.700      2.11908e+02       3.71494e+01       4.51823e+01       3.33528e-04       2.02843e+02
 11.800      2.11879e+02       3.71174e+01       4.49870e+01       3.28284e-04       1.99627e+02
 11.900      2.11921e+02       3.68658e+01       4.44167e+01       3.23019e-04       1.96464e+02
 12.000      2.12027e+02       3.64089e+01       4.34963e+01       3.17743e-04       1.93352e+02
 12.100      2.12192e+02       3.57655e+01       4.22594e+01       3.12469e-04       1.90291e+02
 12.200      2.12408e+02       3.49546e+01       4.07398e+01       3.07211e-04       1.87280e+02
 12.300      2.12671e+02       3.39951e+01       3.89710e+01       3.01979e-04       1.84318e+02
 12.400      2.12974e+02       3.29060e+01       3.69866e+01       2.96784e-04       1.81405e+02
 12.500      2.13309e+02       3.17060e+01       3.48202e+01       2.91637e-04       1.78539e+02
 12.600      2.13672e+02       3.04143e+01       3.25055e+01       2.86547e-04       1.75721e+02
 12.700      2.14055e+02       2.90498e+01       3.00760e+01       2.81523e-04       1.72950e+02
 12.800      2.14452e+02       2.76312e+01       2.75655e+01       2.76572e-04       1.70224e+02
 12.900      2.14857e+02       2.61776e+01       2.50075e+01       2.71703e-04       1.67543e+02
 13.000      2.15264e+02       2.47080e+01       2.24356e+01       2.66922e-04       1.64907e+02
 13.100      2.15666e+02       2.32411e+01       1.98835e+01       2.62236e-04       1.62314e+02
 13.200      2.16057e+02       2.17960e+01       1.73848e+01       2.57650e-04       1.59764e+02
 13.300      2.16430e+02       2.03916e+01       1.49731e+01       2.53168e-04       1.57257e+02
 13.400      2.16780e+02       1.90468e+01       1.26819e+01       2.48796e-04       1.54791e+02
 13.500      2.17100e+02       1.77806e+01       1.05451e+01       2.44539e-04       1.52366e+02
 13.600      2.17384e+02       1.66118e+01       8.59602e+00       2.40398e-04       1.49982e+02
 13.700      2.17626e+02       1.55551e+01       6.86093e+00       2.36377e-04       1.47638e+02
 13.800      2.17828e+02       1.46083e+01       5.33632e+00       2.32470e-04       1.45332e+02
 13.900      2.17991e+02       1.37652e+01       4.01158e+00       2.28672e-04       1.43065e+02
 14.000      2.18118e+02       1.30194e+01       2.87604e+00       2.24976e-04       1.40835e+02
 14.100      2.18211e+02       1.23647e+01       1.91907e+00       2.21378e-04       1.38642e+02
 14.200      2.18272e+02       1.17949e+01       1.13003e+00       2.17872e-04       1.36484e+02
 14.300      2.18303e+02       1.13035e+01       4.98252e-01       2.14453e-04       1.34361e+02
 14.400      2.18306e+02       1.08844e+01       1.31192e-02       2.11117e-04       1.32273e+02
 14.500      2.18284e+02       1.05313e+01      -3.36027e-01       2.07859e-04       1.30218e+02
 14.600      2.18238e+02       1.02379e+01      -5.59826e-01       2.04675e-04       1.28197e+02
 14.700      2.18171e+02       9.99785e+00      -6.68921e-01       2.01561e-04       1.26207e+02
 14.800      2.18084e+02       9.80496e+00      -6.73958e-01       1.98513e-04       1.24249e+02
 14.900      2.17981e+02       9.65293e+00      -5.85580e-01       1.95527e-04       1.22323e+02
 15.000      2.17862e+02       9.53547e+00      -4.14431e-01       1.92601e-04       1.20426e+02
 15.100      2.17730e+02       9.44630e+00      -1.71154e-01       1.89730e-04       1.18560e+02
 15.200      2.17588e+02       9.37915e+00       1.33603e-01       1.86912e-04       1.16722e+02
 15.300      2.17437e+02       9.32774e+00       4.89202e-01       1.84143e-04       1.14913e+02
 15.400      2.17279e+02       9.28578e+00       8.84993e-01       1.81421e-04       1.13133e+02
 15.500      2.17117e+02       9.24700e+00       1.31034e+00       1.78743e-04       1.11380e+02
 15.600      2.16952e+02       9.20512e+00       1.75459e+00       1.76106e-04       1.09653e+02
 15.700      2.16788e+02       9.15386e+00       2.20711e+00       1.73508e-04       1.07954e+02
 15.800      2.16625e+02       9.08694e+00       2.65724e+00       1.70946e-04       1.06280e+02
 15.900      2.16467e+02       8.99808e+00       3.09435e+00       1.68418e-04       1.04631e+02
 16.000      2.16314e+02       8.88100e+00       3.50780e+00       1.65922e-04       1.03008e+02
 16.100      2.16170e+02       8.72943e+00       3.88693e+00       1.63456e-04       1.01409e+02
 16.200      2.16036e+02       8.53708e+00       4.22111e+00       1.61017e-04       9.98345e+01
 16.300      2.15914e+02       8.30001e+00       4.50273e+00       1.58605e-04       9.82834e+01
 16.400      2.15804e+02       8.02108e+00       4.73313e+00       1.56219e-04       9.67556e+01
 16.500      2.15705e+02       7.70439e+00       4.91521e+00       1.53860e-04       9.52507e+01
 16.600      2.15617e+02       7.35402e+00       5.05190e+00       1.51528e-04       9.37685e+01
 16.700      2.15539e+02       6.97408e+00       5.14613e+00       1.49223e-04       9.23086e+01
 16.800      2.15470e+02       6.56866e+00       5.20083e+00       1.46945e-04       9.08708e+01
 16.900      2.15411e+02       6.14186e+00       5.21892e+00       1.44695e-04       8.94547e+01
 17.000      2.15360e+02       5.69778e+00       5.20332e+00       1.42473e-04       8.80599e+01
 17.100      2.15317e+02       5.24050e+00       5.15697e+00       1.40278e-04       8.66862e+01
 17.200      2.15281e+02       4.77413e+00       5.08278e+00       1.38112e-04       8.53333e+01
 17.300      2.15252e+02       4.30277e+00       4.98369e+00       1.35974e-04       8.40009e+01
 17.400      2.15229e+02       3.83050e+00       4.86262e+00       1.33864e-04       8.26887e+01
 17.500      2.15213e+02       3.36143e+00       4.72249e+00       1.31782e-04       8.13964e+01
 17.600      2.15201e+02       2.89964e+00       4.56623e+00       1.29728e-04       8.01237e+01
 17.700      2.15194e+02       2.44924e+00       4.39677e+00       1.27703e-04       7.88704e+01
 17.800      2.15191e+02       2.01434e+00       4.21704e+00       1.25706e-04       7.76362e+01
 17.900      2.15192e+02       1.59900e+00       4.02995e+00       1.23738e-04       7.64207e+01
 18.000      2.15196e+02       1.20734e+00       3.83843e+00       1.21798e-04       7.52238e+01
 18.100      2.15203e+02       8.43444e-01       3.64541e+00       1.19885e-04       7.40451e+01
 18.200      2.15211e+02       5.11419e-01       3.45382e+00       1.18002e-04       7.28844e+01
 18.300      2.15221e+02       2.15361e-01       3.26659e+00       1.16146e-04       7.17415e+01
 18.400      2.15232e+02      -4.06436e-02       3.08663e+00       1.14318e-04       7.06160e+01
 18.500      2.15243e+02      -2.52610e-01       2.91682e+00       1.12518e-04       6.95077e+01
 18.600      2.15255e+02      -4.20031e-01       2.75851e+00       1.10745e-04       6.84165e+01
 18.700      2.15266e+02      -5.46404e-01       2.61129e+00       1.09000e-04       6.73420e+01
 18.800      2.15278e+02      -6.35443e-01       2.47466e+00       1.07283e-04       6.62844e+01
 18.900      2.15290e+02      -6.90867e-01       2.34811e+00       1.05592e-04       6.52432e+01
 19.000      2.15302e+02      -7.16392e-01       2.23112e+00       1.03927e-04       6.42183e+01
 19.100      2.15315e+02      -7.15734e-01       2.12320e+00       1.02289e-04       6.32096e+01
 19.200      2.15328e+02      -6.92610e-01       2.02384e+00       1.00676e-04       6.22170e+01
 19.300      2.15342e+02      -6.50736e-01       1.93253e+00       9.90891e-05       6.12401e+01
 19.400      2.15356e+02      -5.93828e-01       1.84876e+00       9.75275e-05       6.02790e+01
 19.500      2.15371e+02      -5.25603e-01       1.77203e+00       9.59909e-05       5.93333e+01
 19.600      2.15386e+02      -4.49777e-01       1.70183e+00       9.44790e-05       5.84029e+01
 19.700      2.15402e+02      -3.70066e-01       1.63765e+00       9.29915e-05       5.74877e+01
 19.800      2.15419e+02      -2.90190e-01       1.57899e+00       9.15281e-05       5.65874e+01
 19.900      2.15436e+02      -2.13861e-01       1.52534e+00       9.00885e-05       5.57019e+01
 20.000      2.15454e+02      -1.44797e-01       1.47620e+00       8.86724e-05       5.48309e+01
 20.100      2.15474e+02      -8.67151e-02       1.43105e+00       8.72794e-05       5.39744e+01
 20.200      2.15494e+02      -4.33311e-02       1.38939e+00       8.59094e-05       5.31322e+01
 20.300      2.15515e+02      -1.83623e-02       1.35072e+00       8.45620e-05       5.23040e+01
