# Data Source: NASA MERRA (version 2)
# Model Time = 2011-08-10 18:00:00
# Location = [  39.1026,  -84.5123 ]
# Fields = [ Z(km), T(K), U(m/s), V(m/s), R(g/cm3), P(mbar) ]
# Ground Height = 0.165
  0.000      3.00428e+02       5.89184e+00      -2.37608e+00       1.17048e-03       1.00922e+03
  0.100      2.99820e+02       5.82954e+00      -2.36308e+00       1.15940e-03       9.97647e+02
  0.200      2.99187e+02       5.80372e+00      -2.36973e+00       1.14854e-03       9.86214e+02
  0.300      2.98399e+02       5.99299e+00      -2.49228e+00       1.13842e-03       9.74947e+02
  0.400      2.97384e+02       6.48713e+00      -2.77899e+00       1.12931e-03       9.63860e+02
  0.500      2.96279e+02       7.02563e+00      -3.08885e+00       1.12065e-03       9.52907e+02
  0.600      2.95255e+02       7.29950e+00      -3.25326e+00       1.11171e-03       9.42038e+02
  0.700      2.94322e+02       7.34829e+00      -3.27890e+00       1.10245e-03       9.31244e+02
  0.800      2.93404e+02       7.39627e+00      -3.26563e+00       1.09319e-03       9.20538e+02
  0.900      2.92458e+02       7.55457e+00      -3.26603e+00       1.08408e-03       9.09926e+02
  1.000      2.91484e+02       7.79190e+00      -3.27296e+00       1.07512e-03       8.99403e+02
  1.100      2.90487e+02       8.07398e+00      -3.27753e+00       1.06629e-03       8.88966e+02
  1.200      2.89484e+02       8.38658e+00      -3.27749e+00       1.05753e-03       8.78615e+02
  1.300      2.88497e+02       8.71964e+00      -3.27198e+00       1.04875e-03       8.68351e+02
  1.400      2.87545e+02       9.06311e+00      -3.26015e+00       1.03989e-03       8.58172e+02
  1.500      2.86648e+02       9.40699e+00      -3.24119e+00       1.03088e-03       8.48081e+02
  1.600      2.85824e+02       9.74877e+00      -3.22200e+00       1.02165e-03       8.38076e+02
  1.700      2.85084e+02       1.01031e+01      -3.22725e+00       1.01219e-03       8.28162e+02
  1.800      2.84440e+02       1.04871e+01      -3.28407e+00       1.00245e-03       8.18340e+02
  1.900      2.83903e+02       1.09178e+01      -3.41956e+00       9.92404e-04       8.08612e+02
  2.000      2.83483e+02       1.14123e+01      -3.66084e+00       9.82037e-04       7.98980e+02
  2.100      2.83181e+02       1.19749e+01      -4.01785e+00       9.71354e-04       7.89447e+02
  2.200      2.82967e+02       1.25730e+01      -4.45041e+00       9.60470e-04       7.80013e+02
  2.300      2.82807e+02       1.31674e+01      -4.90926e+00       9.49514e-04       7.70679e+02
  2.400      2.82665e+02       1.37185e+01      -5.34515e+00       9.38610e-04       7.61447e+02
  2.500      2.82507e+02       1.41872e+01      -5.70882e+00       9.27876e-04       7.52316e+02
  2.600      2.82299e+02       1.45388e+01      -5.95672e+00       9.17416e-04       7.43288e+02
  2.700      2.82032e+02       1.47816e+01      -6.09600e+00       9.07255e-04       7.34361e+02
  2.800      2.81708e+02       1.49461e+01      -6.16028e+00       8.97376e-04       7.25532e+02
  2.900      2.81331e+02       1.50628e+01      -6.18342e+00       8.87763e-04       7.16797e+02
  3.000      2.80902e+02       1.51626e+01      -6.19927e+00       8.78401e-04       7.08156e+02
  3.100      2.80423e+02       1.52760e+01      -6.24168e+00       8.69275e-04       6.99604e+02
  3.200      2.79899e+02       1.54267e+01      -6.33467e+00       8.60366e-04       6.91141e+02
  3.300      2.79338e+02       1.56129e+01      -6.46797e+00       8.51645e-04       6.82763e+02
  3.400      2.78749e+02       1.58277e+01      -6.62390e+00       8.43078e-04       6.74472e+02
  3.500      2.78143e+02       1.60640e+01      -6.78474e+00       8.34635e-04       6.66264e+02
  3.600      2.77529e+02       1.63149e+01      -6.93278e+00       8.26283e-04       6.58141e+02
  3.700      2.76915e+02       1.65734e+01      -7.05033e+00       8.17996e-04       6.50099e+02
  3.800      2.76310e+02       1.68330e+01      -7.12387e+00       8.09749e-04       6.42139e+02
  3.900      2.75711e+02       1.70894e+01      -7.15724e+00       8.01550e-04       6.34260e+02
  4.000      2.75113e+02       1.73388e+01      -7.15881e+00       7.93414e-04       6.26460e+02
  4.100      2.74511e+02       1.75777e+01      -7.13694e+00       7.85354e-04       6.18739e+02
  4.200      2.73900e+02       1.78023e+01      -7.09999e+00       7.77383e-04       6.11096e+02
  4.300      2.73275e+02       1.80089e+01      -7.05632e+00       7.69515e-04       6.03530e+02
  4.400      2.72632e+02       1.81942e+01      -7.01391e+00       7.61759e-04       5.96041e+02
  4.500      2.71973e+02       1.83618e+01      -6.97289e+00       7.54107e-04       5.88628e+02
  4.600      2.71309e+02       1.85221e+01      -6.92617e+00       7.46528e-04       5.81290e+02
  4.700      2.70652e+02       1.86855e+01      -6.86639e+00       7.38991e-04       5.74027e+02
  4.800      2.70011e+02       1.88625e+01      -6.78617e+00       7.31469e-04       5.66838e+02
  4.900      2.69397e+02       1.90636e+01      -6.67814e+00       7.23934e-04       5.59724e+02
  5.000      2.68821e+02       1.92993e+01      -6.53495e+00       7.16358e-04       5.52682e+02
  5.100      2.68294e+02       1.95793e+01      -6.34947e+00       7.08717e-04       5.45714e+02
  5.200      2.67812e+02       1.99027e+01      -6.11819e+00       7.01021e-04       5.38820e+02
  5.300      2.67367e+02       2.02606e+01      -5.84024e+00       6.93301e-04       5.31999e+02
  5.400      2.66946e+02       2.06440e+01      -5.51481e+00       6.85588e-04       5.25254e+02
  5.500      2.66540e+02       2.10439e+01      -5.14110e+00       6.77913e-04       5.18583e+02
  5.600      2.66138e+02       2.14512e+01      -4.71829e+00       6.70304e-04       5.11988e+02
  5.700      2.65728e+02       2.18569e+01      -4.24558e+00       6.62789e-04       5.05469e+02
  5.800      2.65301e+02       2.22520e+01      -3.72216e+00       6.55395e-04       4.99026e+02
  5.900      2.64848e+02       2.26298e+01      -3.15044e+00       6.48141e-04       4.92660e+02
  6.000      2.64364e+02       2.29893e+01      -2.54095e+00       6.41031e-04       4.86366e+02
  6.100      2.63847e+02       2.33305e+01      -1.90555e+00       6.34068e-04       4.80142e+02
  6.200      2.63294e+02       2.36533e+01      -1.25606e+00       6.27251e-04       4.73984e+02
  6.300      2.62701e+02       2.39577e+01      -6.04325e-01       6.20583e-04       4.67889e+02
  6.400      2.62066e+02       2.42436e+01       3.78165e-02       6.14064e-04       4.61855e+02
  6.500      2.61385e+02       2.45110e+01       6.58529e-01       6.07696e-04       4.55878e+02
  6.600      2.60655e+02       2.47599e+01       1.24597e+00       6.01481e-04       4.49956e+02
  6.700      2.59876e+02       2.49906e+01       1.78808e+00       5.95415e-04       4.44087e+02
  6.800      2.59055e+02       2.52045e+01       2.27187e+00       5.89483e-04       4.38273e+02
  6.900      2.58201e+02       2.54037e+01       2.68412e+00       5.83666e-04       4.32517e+02
  7.000      2.57323e+02       2.55900e+01       3.01164e+00       5.77943e-04       4.26822e+02
  7.100      2.56433e+02       2.57652e+01       3.24122e+00       5.72297e-04       4.21189e+02
  7.200      2.55538e+02       2.59312e+01       3.35964e+00       5.66710e-04       4.15621e+02
  7.300      2.54648e+02       2.60898e+01       3.35371e+00       5.61163e-04       4.10120e+02
  7.400      2.53773e+02       2.62431e+01       3.21021e+00       5.55639e-04       4.04688e+02
  7.500      2.52923e+02       2.63928e+01       2.91595e+00       5.50122e-04       3.99327e+02
  7.600      2.52103e+02       2.65416e+01       2.46423e+00       5.44598e-04       3.94036e+02
  7.700      2.51313e+02       2.66943e+01       1.86628e+00       5.39061e-04       3.88807e+02
  7.800      2.50547e+02       2.68563e+01       1.13636e+00       5.33510e-04       3.83632e+02
  7.900      2.49804e+02       2.70327e+01       2.88757e-01       5.27942e-04       3.78502e+02
  8.000      2.49080e+02       2.72288e+01      -6.62260e-01       5.22353e-04       3.73409e+02
  8.100      2.48371e+02       2.74499e+01      -1.70242e+00       5.16742e-04       3.68346e+02
  8.200      2.47674e+02       2.77010e+01      -2.81743e+00       5.11106e-04       3.63307e+02
  8.300      2.46986e+02       2.79876e+01      -3.99304e+00       5.05445e-04       3.58284e+02
  8.400      2.46303e+02       2.83148e+01      -5.21496e+00       4.99756e-04       3.53272e+02
  8.500      2.45622e+02       2.86878e+01      -6.46890e+00       4.94038e-04       3.48265e+02
  8.600      2.44941e+02       2.91086e+01      -7.73949e+00       4.88305e-04       3.43269e+02
  8.700      2.44260e+02       2.95742e+01      -9.00972e+00       4.82590e-04       3.38308e+02
  8.800      2.43579e+02       3.00813e+01      -1.02625e+01       4.76925e-04       3.33404e+02
  8.900      2.42897e+02       3.06267e+01      -1.14806e+01       4.71342e-04       3.28579e+02
  9.000      2.42216e+02       3.12070e+01      -1.26470e+01       4.65871e-04       3.23855e+02
  9.100      2.41534e+02       3.18190e+01      -1.37445e+01       4.60542e-04       3.19249e+02
  9.200      2.40853e+02       3.24592e+01      -1.47560e+01       4.55380e-04       3.14780e+02
  9.300      2.40171e+02       3.31246e+01      -1.56644e+01       4.50413e-04       3.10466e+02
  9.400      2.39490e+02       3.38116e+01      -1.64524e+01       4.45665e-04       3.06322e+02
  9.500      2.38809e+02       3.45171e+01      -1.71031e+01       4.41160e-04       3.02363e+02
  9.600      2.38128e+02       3.52376e+01      -1.75996e+01       4.36921e-04       2.98604e+02
  9.700      2.37448e+02       3.59695e+01      -1.79361e+01       4.32947e-04       2.95043e+02
  9.800      2.36769e+02       3.67080e+01      -1.81226e+01       4.29211e-04       2.91660e+02
  9.900      2.36091e+02       3.74485e+01      -1.81702e+01       4.25682e-04       2.88434e+02
 10.000      2.35415e+02       3.81864e+01      -1.80897e+01       4.22330e-04       2.85344e+02
 10.100      2.34742e+02       3.89171e+01      -1.78923e+01       4.19129e-04       2.82372e+02
 10.200      2.34073e+02       3.96359e+01      -1.75889e+01       4.16051e-04       2.79498e+02
 10.300      2.33407e+02       4.03381e+01      -1.71906e+01       4.13070e-04       2.76706e+02
 10.400      2.32745e+02       4.10191e+01      -1.67083e+01       4.10160e-04       2.73978e+02
 10.500      2.32088e+02       4.16743e+01      -1.61532e+01       4.07297e-04       2.71297e+02
 10.600      2.31437e+02       4.22991e+01      -1.55361e+01       4.04456e-04       2.68649e+02
 10.700      2.30791e+02       4.28887e+01      -1.48682e+01       4.01615e-04       2.66018e+02
 10.800      2.30152e+02       4.34386e+01      -1.41603e+01       3.98750e-04       2.63389e+02
 10.900      2.29520e+02       4.39440e+01      -1.34236e+01       3.95840e-04       2.60749e+02
 11.000      2.28896e+02       4.44004e+01      -1.26691e+01       3.92863e-04       2.58084e+02
 11.100      2.28279e+02       4.48032e+01      -1.19078e+01       3.89799e-04       2.55381e+02
 11.200      2.27671e+02       4.51476e+01      -1.11506e+01       3.86626e-04       2.52628e+02
 11.300      2.27073e+02       4.54290e+01      -1.04086e+01       3.83327e-04       2.49814e+02
 11.400      2.26484e+02       4.56443e+01      -9.69074e+00       3.79887e-04       2.46930e+02
 11.500      2.25904e+02       4.57951e+01      -8.99909e+00       3.76306e-04       2.43976e+02
 11.600      2.25334e+02       4.58841e+01      -8.33434e+00       3.72588e-04       2.40956e+02
 11.700      2.24771e+02       4.59139e+01      -7.69716e+00       3.68737e-04       2.37870e+02
 11.800      2.24217e+02       4.58872e+01      -7.08822e+00       3.64757e-04       2.34722e+02
 11.900      2.23671e+02       4.58067e+01      -6.50822e+00       3.60652e-04       2.31515e+02
 12.000      2.23132e+02       4.56749e+01      -5.95781e+00       3.56426e-04       2.28251e+02
 12.100      2.22599e+02       4.54946e+01      -5.43769e+00       3.52083e-04       2.24932e+02
 12.200      2.22074e+02       4.52685e+01      -4.94854e+00       3.47628e-04       2.21561e+02
 12.300      2.21554e+02       4.49991e+01      -4.49102e+00       3.43067e-04       2.18142e+02
 12.400      2.21040e+02       4.46891e+01      -4.06583e+00       3.38402e-04       2.14678e+02
 12.500      2.20532e+02       4.43412e+01      -3.67364e+00       3.33641e-04       2.11170e+02
 12.600      2.20028e+02       4.39580e+01      -3.31512e+00       3.28787e-04       2.07623e+02
 12.700      2.19529e+02       4.35423e+01      -2.99096e+00       3.23846e-04       2.04039e+02
 12.800      2.19034e+02       4.30966e+01      -2.70183e+00       3.18824e-04       2.00422e+02
 12.900      2.18543e+02       4.26234e+01      -2.44808e+00       3.13726e-04       1.96775e+02
 13.000      2.18057e+02       4.21243e+01      -2.22803e+00       3.08572e-04       1.93112e+02
 13.100      2.17576e+02       4.16002e+01      -2.03936e+00       3.03380e-04       1.89444e+02
 13.200      2.17102e+02       4.10524e+01      -1.87971e+00       2.98170e-04       1.85785e+02
 13.300      2.16636e+02       4.04818e+01      -1.74674e+00       2.92960e-04       1.82147e+02
 13.400      2.16179e+02       3.98897e+01      -1.63810e+00       2.87767e-04       1.78540e+02
 13.500      2.15731e+02       3.92771e+01      -1.55144e+00       2.82607e-04       1.74975e+02
 13.600      2.15294e+02       3.86451e+01      -1.48441e+00       2.77494e-04       1.71461e+02
 13.700      2.14868e+02       3.79949e+01      -1.43468e+00       2.72442e-04       1.68008e+02
 13.800      2.14456e+02       3.73275e+01      -1.39988e+00       2.67465e-04       1.64621e+02
 13.900      2.14057e+02       3.66441e+01      -1.37768e+00       2.62573e-04       1.61310e+02
 14.000      2.13674e+02       3.59457e+01      -1.36572e+00       2.57779e-04       1.58081e+02
 14.100      2.13306e+02       3.52335e+01      -1.36166e+00       2.53091e-04       1.54939e+02
 14.200      2.12955e+02       3.45086e+01      -1.36316e+00       2.48519e-04       1.51890e+02
 14.300      2.12622e+02       3.37720e+01      -1.36787e+00       2.44072e-04       1.48939e+02
 14.400      2.12307e+02       3.30249e+01      -1.37419e+00       2.39751e-04       1.46085e+02
 14.500      2.12011e+02       3.22684e+01      -1.38154e+00       2.35551e-04       1.43326e+02
 14.600      2.11733e+02       3.15036e+01      -1.38941e+00       2.31466e-04       1.40656e+02
 14.700      2.11472e+02       3.07315e+01      -1.39729e+00       2.27491e-04       1.38070e+02
 14.800      2.11230e+02       2.99533e+01      -1.40470e+00       2.23620e-04       1.35565e+02
 14.900      2.11005e+02       2.91701e+01      -1.41112e+00       2.19847e-04       1.33136e+02
 15.000      2.10797e+02       2.83830e+01      -1.41605e+00       2.16168e-04       1.30779e+02
 15.100      2.10606e+02       2.75930e+01      -1.41899e+00       2.12579e-04       1.28491e+02
 15.200      2.10432e+02       2.68014e+01      -1.41943e+00       2.09075e-04       1.26269e+02
 15.300      2.10274e+02       2.60091e+01      -1.41688e+00       2.05652e-04       1.24108e+02
 15.400      2.10133e+02       2.52173e+01      -1.41083e+00       2.02305e-04       1.22006e+02
 15.500      2.10008e+02       2.44270e+01      -1.40077e+00       1.99031e-04       1.19961e+02
 15.600      2.09899e+02       2.36395e+01      -1.38621e+00       1.95827e-04       1.17968e+02
 15.700      2.09805e+02       2.28557e+01      -1.36664e+00       1.92688e-04       1.16026e+02
 15.800      2.09728e+02       2.20768e+01      -1.34156e+00       1.89612e-04       1.14131e+02
 15.900      2.09665e+02       2.13039e+01      -1.31046e+00       1.86596e-04       1.12282e+02
 16.000      2.09618e+02       2.05381e+01      -1.27285e+00       1.83636e-04       1.10476e+02
 16.100      2.09585e+02       1.97804e+01      -1.22822e+00       1.80729e-04       1.08710e+02
 16.200      2.09567e+02       1.90320e+01      -1.17606e+00       1.77873e-04       1.06983e+02
 16.300      2.09564e+02       1.82941e+01      -1.11588e+00       1.75065e-04       1.05293e+02
 16.400      2.09575e+02       1.75675e+01      -1.04717e+00       1.72303e-04       1.03637e+02
 16.500      2.09599e+02       1.68536e+01      -9.69429e-01       1.69585e-04       1.02014e+02
 16.600      2.09638e+02       1.61534e+01      -8.82153e-01       1.66907e-04       1.00422e+02
 16.700      2.09690e+02       1.54678e+01      -7.84927e-01       1.64269e-04       9.88589e+01
 16.800      2.09756e+02       1.47972e+01      -6.78146e-01       1.61669e-04       9.73243e+01
 16.900      2.09834e+02       1.41415e+01      -5.62632e-01       1.59105e-04       9.58169e+01
 17.000      2.09925e+02       1.35006e+01      -4.39222e-01       1.56578e-04       9.43356e+01
 17.100      2.10028e+02       1.28743e+01      -3.08748e-01       1.54086e-04       9.28797e+01
 17.200      2.10143e+02       1.22625e+01      -1.72042e-01       1.51628e-04       9.14482e+01
 17.300      2.10268e+02       1.16651e+01      -2.99399e-02       1.49204e-04       9.00404e+01
 17.400      2.10405e+02       1.10820e+01       1.16731e-01       1.46814e-04       8.86553e+01
 17.500      2.10553e+02       1.05131e+01       2.67135e-01       1.44455e-04       8.72922e+01
 17.600      2.10710e+02       9.95818e+00       4.20441e-01       1.42128e-04       8.59505e+01
 17.700      2.10877e+02       9.41721e+00       5.75814e-01       1.39833e-04       8.46293e+01
 17.800      2.11054e+02       8.89007e+00       7.32420e-01       1.37567e-04       8.33280e+01
 17.900      2.11240e+02       8.37661e+00       8.89431e-01       1.35332e-04       8.20459e+01
 18.000      2.11434e+02       7.87672e+00       1.04601e+00       1.33125e-04       8.07825e+01
 18.100      2.11636e+02       7.39029e+00       1.20133e+00       1.30948e-04       7.95371e+01
 18.200      2.11846e+02       6.91720e+00       1.35456e+00       1.28798e-04       7.83091e+01
 18.300      2.12064e+02       6.45734e+00       1.50485e+00       1.26676e-04       7.70980e+01
 18.400      2.12289e+02       6.01057e+00       1.65138e+00       1.24581e-04       7.59033e+01
 18.500      2.12520e+02       5.57679e+00       1.79332e+00       1.22512e-04       7.47243e+01
 18.600      2.12758e+02       5.15588e+00       1.92984e+00       1.20470e-04       7.35608e+01
 18.700      2.13001e+02       4.74772e+00       2.06010e+00       1.18453e-04       7.24121e+01
 18.800      2.13250e+02       4.35220e+00       2.18326e+00       1.16462e-04       7.12779e+01
 18.900      2.13504e+02       3.96918e+00       2.29850e+00       1.14495e-04       7.01577e+01
 19.000      2.13762e+02       3.59852e+00       2.40511e+00       1.12553e-04       6.90511e+01
 19.100      2.14025e+02       3.23973e+00       2.50317e+00       1.10636e-04       6.79583e+01
 19.200      2.14291e+02       2.89224e+00       2.59305e+00       1.08745e-04       6.68797e+01
 19.300      2.14559e+02       2.55548e+00       2.67511e+00       1.06881e-04       6.58155e+01
 19.400      2.14828e+02       2.22884e+00       2.74974e+00       1.05044e-04       6.47657e+01
 19.500      2.15099e+02       1.91175e+00       2.81731e+00       1.03235e-04       6.37308e+01
 19.600      2.15370e+02       1.60364e+00       2.87819e+00       1.01456e-04       6.27108e+01
 19.700      2.15639e+02       1.30391e+00       2.93274e+00       9.97051e-05       6.17060e+01
 19.800      2.15908e+02       1.01199e+00       2.98136e+00       9.79843e-05       6.07164e+01
 19.900      2.16173e+02       7.27288e-01       3.02440e+00       9.62936e-05       5.97423e+01
 20.000      2.16436e+02       4.49229e-01       3.06224e+00       9.46334e-05       5.87836e+01
 20.100      2.16695e+02       1.77228e-01       3.09526e+00       9.30040e-05       5.78405e+01
 20.200      2.16949e+02      -8.92956e-02       3.12383e+00       9.14056e-05       5.69131e+01
 20.300      2.17198e+02      -3.50920e-01       3.14831e+00       8.98384e-05       5.60014e+01
