# Data Source: NASA MERRA (version 2)
# Model Time = 2011-12-24 18:00:00
# Location = [  39.1026,  -84.5123 ]
# Fields = [ Z(km), T(K), U(m/s), V(m/s), R(g/cm3), P(mbar) ]
# Ground Height = 0.165
  0.000      2.78896e+02       1.56242e+00       1.78624e+00       1.28719e-03       1.03031e+03
  0.100      2.77811e+02       1.89064e+00       2.18587e+00       1.27626e-03       1.01758e+03
  0.200      2.76694e+02       2.20805e+00       2.63014e+00       1.26564e-03       1.00506e+03
  0.300      2.75568e+02       2.52234e+00       3.08736e+00       1.25520e-03       9.92711e+02
  0.400      2.74455e+02       2.84116e+00       3.52582e+00       1.24477e-03       9.80491e+02
  0.500      2.73376e+02       3.17147e+00       3.91524e+00       1.23423e-03       9.68367e+02
  0.600      2.72326e+02       3.50708e+00       4.25138e+00       1.22360e-03       9.56334e+02
  0.700      2.71279e+02       3.83573e+00       4.55037e+00       1.21301e-03       9.44409e+02
  0.800      2.70399e+02       4.29194e+00       4.75822e+00       1.20174e-03       9.32603e+02
  0.900      2.70047e+02       5.16451e+00       4.74608e+00       1.18823e-03       9.20920e+02
  1.000      2.70284e+02       6.49139e+00       4.47342e+00       1.17230e-03       9.09369e+02
  1.100      2.70716e+02       7.92763e+00       4.03610e+00       1.15575e-03       8.97965e+02
  1.200      2.71032e+02       9.20245e+00       3.51412e+00       1.13994e-03       8.86719e+02
  1.300      2.71214e+02       1.02935e+01       2.92381e+00       1.12493e-03       8.75626e+02
  1.400      2.71282e+02       1.12145e+01       2.27230e+00       1.11059e-03       8.64680e+02
  1.500      2.71259e+02       1.19789e+01       1.56676e+00       1.09680e-03       8.53876e+02
  1.600      2.71165e+02       1.26011e+01       8.15147e-01       1.08347e-03       8.43207e+02
  1.700      2.71018e+02       1.31040e+01       3.60747e-02       1.07051e-03       8.32670e+02
  1.800      2.70829e+02       1.35168e+01      -7.44429e-01       1.05787e-03       8.22259e+02
  1.900      2.70610e+02       1.38687e+01      -1.50019e+00       1.04548e-03       8.11972e+02
  2.000      2.70373e+02       1.41888e+01      -2.20503e+00       1.03329e-03       8.01803e+02
  2.100      2.70131e+02       1.45045e+01      -2.83397e+00       1.02125e-03       7.91751e+02
  2.200      2.69893e+02       1.48286e+01      -3.37029e+00       1.00932e-03       7.81813e+02
  2.300      2.69669e+02       1.51684e+01      -3.80072e+00       9.97470e-04       7.71992e+02
  2.400      2.69470e+02       1.55308e+01      -4.11204e+00       9.85658e-04       7.62288e+02
  2.500      2.69306e+02       1.59228e+01      -4.29101e+00       9.73857e-04       7.52701e+02
  2.600      2.69184e+02       1.63499e+01      -4.32650e+00       9.62042e-04       7.43232e+02
  2.700      2.69090e+02       1.68000e+01      -4.22805e+00       9.50265e-04       7.33879e+02
  2.800      2.69000e+02       1.72514e+01      -4.01683e+00       9.38617e-04       7.24640e+02
  2.900      2.68887e+02       1.76824e+01      -3.71416e+00       9.27183e-04       7.15512e+02
  3.000      2.68726e+02       1.80712e+01      -3.34136e+00       9.16045e-04       7.06493e+02
  3.100      2.68491e+02       1.83960e+01      -2.91973e+00       9.05281e-04       6.97582e+02
  3.200      2.68169e+02       1.86474e+01      -2.46735e+00       8.94923e-04       6.88775e+02
  3.300      2.67770e+02       1.88381e+01      -1.99650e+00       8.84928e-04       6.80068e+02
  3.400      2.67306e+02       1.89830e+01      -1.51884e+00       8.75243e-04       6.71459e+02
  3.500      2.66789e+02       1.90974e+01      -1.04603e+00       8.65820e-04       6.62945e+02
  3.600      2.66231e+02       1.91962e+01      -5.89732e-01       8.56613e-04       6.54523e+02
  3.700      2.65643e+02       1.92942e+01      -1.61357e-01       8.47576e-04       6.46188e+02
  3.800      2.65035e+02       1.93985e+01       2.34420e-01       8.38678e-04       6.37941e+02
  3.900      2.64410e+02       1.95075e+01       6.00441e-01       8.29907e-04       6.29780e+02
  4.000      2.63771e+02       1.96192e+01       9.39943e-01       8.21247e-04       6.21704e+02
  4.100      2.63124e+02       1.97318e+01       1.25616e+00       8.12686e-04       6.13712e+02
  4.200      2.62471e+02       1.98431e+01       1.55233e+00       8.04211e-04       6.05804e+02
  4.300      2.61816e+02       1.99512e+01       1.83170e+00       7.95809e-04       5.97980e+02
  4.400      2.61161e+02       2.00555e+01       2.09727e+00       7.87473e-04       5.90237e+02
  4.500      2.60506e+02       2.01577e+01       2.35168e+00       7.79207e-04       5.82576e+02
  4.600      2.59849e+02       2.02602e+01       2.59751e+00       7.71013e-04       5.74995e+02
  4.700      2.59188e+02       2.03650e+01       2.83734e+00       7.62894e-04       5.67494e+02
  4.800      2.58522e+02       2.04742e+01       3.07375e+00       7.54854e-04       5.60070e+02
  4.900      2.57849e+02       2.05900e+01       3.30933e+00       7.46896e-04       5.52723e+02
  5.000      2.57169e+02       2.07150e+01       3.54657e+00       7.39021e-04       5.45452e+02
  5.100      2.56484e+02       2.08570e+01       3.78694e+00       7.31221e-04       5.38257e+02
  5.200      2.55801e+02       2.10274e+01       4.03115e+00       7.23477e-04       5.31139e+02
  5.300      2.55126e+02       2.12379e+01       4.27991e+00       7.15773e-04       5.24097e+02
  5.400      2.54467e+02       2.15003e+01       4.53390e+00       7.08091e-04       5.17133e+02
  5.500      2.53829e+02       2.18260e+01       4.79382e+00       7.00416e-04       5.10246e+02
  5.600      2.53220e+02       2.22267e+01       5.06038e+00       6.92731e-04       5.03437e+02
  5.700      2.52645e+02       2.27138e+01       5.33396e+00       6.85023e-04       4.96705e+02
  5.800      2.52106e+02       2.32919e+01       5.60761e+00       6.77291e-04       4.90051e+02
  5.900      2.51598e+02       2.39586e+01       5.86686e+00       6.69549e-04       4.83473e+02
  6.000      2.51116e+02       2.47113e+01       6.09691e+00       6.61811e-04       4.76969e+02
  6.100      2.50655e+02       2.55472e+01       6.28294e+00       6.54089e-04       4.70539e+02
  6.200      2.50211e+02       2.64637e+01       6.41014e+00       6.46398e-04       4.64181e+02
  6.300      2.49778e+02       2.74581e+01       6.46371e+00       6.38748e-04       4.57894e+02
  6.400      2.49351e+02       2.85277e+01       6.42883e+00       6.31153e-04       4.51677e+02
  6.500      2.48927e+02       2.96703e+01       6.29322e+00       6.23624e-04       4.45529e+02
  6.600      2.48502e+02       3.08870e+01       6.06830e+00       6.16168e-04       4.39451e+02
  6.700      2.48076e+02       3.21810e+01       5.77844e+00       6.08792e-04       4.33446e+02
  6.800      2.47647e+02       3.35554e+01       5.44813e+00       6.01502e-04       4.27516e+02
  6.900      2.47214e+02       3.50133e+01       5.10187e+00       5.94305e-04       4.21661e+02
  7.000      2.46776e+02       3.65578e+01       4.76416e+00       5.87204e-04       4.15886e+02
  7.100      2.46332e+02       3.81922e+01       4.45949e+00       5.80206e-04       4.10190e+02
  7.200      2.45881e+02       3.99194e+01       4.21236e+00       5.73316e-04       4.04576e+02
  7.300      2.45421e+02       4.17427e+01       4.04723e+00       5.66538e-04       3.99045e+02
  7.400      2.44951e+02       4.36570e+01       3.97913e+00       5.59871e-04       3.93595e+02
  7.500      2.44472e+02       4.56378e+01       4.00037e+00       5.53305e-04       3.88218e+02
  7.600      2.43980e+02       4.76578e+01       4.09993e+00       5.46827e-04       3.82901e+02
  7.700      2.43477e+02       4.96894e+01       4.26680e+00       5.40425e-04       3.77638e+02
  7.800      2.42961e+02       5.17054e+01       4.48995e+00       5.34088e-04       3.72418e+02
  7.900      2.42430e+02       5.36784e+01       4.75836e+00       5.27804e-04       3.67232e+02
  8.000      2.41885e+02       5.55810e+01       5.06101e+00       5.21564e-04       3.62074e+02
  8.100      2.41324e+02       5.73857e+01       5.38689e+00       5.15357e-04       3.56936e+02
  8.200      2.40746e+02       5.90653e+01       5.72497e+00       5.09174e-04       3.51810e+02
  8.300      2.40151e+02       6.05940e+01       6.06459e+00       5.03009e-04       3.46691e+02
  8.400      2.39540e+02       6.19664e+01       6.39959e+00       4.96878e-04       3.41593e+02
  8.500      2.38913e+02       6.31914e+01       6.72689e+00       4.90814e-04       3.36541e+02
  8.600      2.38273e+02       6.42778e+01       7.04344e+00       4.84846e-04       3.31560e+02
  8.700      2.37622e+02       6.52347e+01       7.34622e+00       4.79006e-04       3.26670e+02
  8.800      2.36961e+02       6.60710e+01       7.63218e+00       4.73319e-04       3.21894e+02
  8.900      2.36292e+02       6.67956e+01       7.89830e+00       4.67814e-04       3.17252e+02
  9.000      2.35617e+02       6.74175e+01       8.14154e+00       4.62515e-04       3.12762e+02
  9.100      2.34937e+02       6.79457e+01       8.35886e+00       4.57445e-04       3.08441e+02
  9.200      2.34254e+02       6.83892e+01       8.54723e+00       4.52629e-04       3.04307e+02
  9.300      2.33570e+02       6.87568e+01       8.70362e+00       4.48087e-04       3.00374e+02
  9.400      2.32887e+02       6.90570e+01       8.82580e+00       4.43834e-04       2.96653e+02
  9.500      2.32205e+02       6.92943e+01       8.91589e+00       4.39848e-04       2.93127e+02
  9.600      2.31524e+02       6.94724e+01       8.97744e+00       4.36096e-04       2.89775e+02
  9.700      2.30845e+02       6.95946e+01       9.01402e+00       4.32546e-04       2.86572e+02
  9.800      2.30168e+02       6.96646e+01       9.02920e+00       4.29166e-04       2.83499e+02
  9.900      2.29493e+02       6.96858e+01       9.02654e+00       4.25927e-04       2.80535e+02
 10.000      2.28821e+02       6.96618e+01       9.00961e+00       4.22800e-04       2.77660e+02
 10.100      2.28153e+02       6.95961e+01       8.98197e+00       4.19756e-04       2.74856e+02
 10.200      2.27487e+02       6.94921e+01       8.94720e+00       4.16770e-04       2.72104e+02
 10.300      2.26825e+02       6.93533e+01       8.90885e+00       4.13814e-04       2.69388e+02
 10.400      2.26168e+02       6.91834e+01       8.87049e+00       4.10862e-04       2.66691e+02
 10.500      2.25515e+02       6.89858e+01       8.83569e+00       4.07890e-04       2.63997e+02
 10.600      2.24866e+02       6.87639e+01       8.80800e+00       4.04873e-04       2.61291e+02
 10.700      2.24223e+02       6.85214e+01       8.79101e+00       4.01788e-04       2.58558e+02
 10.800      2.23585e+02       6.82617e+01       8.78827e+00       3.98612e-04       2.55784e+02
 10.900      2.22952e+02       6.79883e+01       8.80335e+00       3.95323e-04       2.52956e+02
 11.000      2.22326e+02       6.77048e+01       8.83981e+00       3.91900e-04       2.50062e+02
 11.100      2.21706e+02       6.74137e+01       8.90010e+00       3.88326e-04       2.47091e+02
 11.200      2.21095e+02       6.71139e+01       8.98190e+00       3.84598e-04       2.44044e+02
 11.300      2.20494e+02       6.68033e+01       9.08163e+00       3.80718e-04       2.40924e+02
 11.400      2.19904e+02       6.64798e+01       9.19569e+00       3.76685e-04       2.37736e+02
 11.500      2.19329e+02       6.61411e+01       9.32050e+00       3.72502e-04       2.34481e+02
 11.600      2.18770e+02       6.57851e+01       9.45248e+00       3.68171e-04       2.31164e+02
 11.700      2.18229e+02       6.54097e+01       9.58802e+00       3.63694e-04       2.27787e+02
 11.800      2.17707e+02       6.50128e+01       9.72355e+00       3.59073e-04       2.24356e+02
 11.900      2.17207e+02       6.45921e+01       9.85548e+00       3.54311e-04       2.20872e+02
 12.000      2.16731e+02       6.41456e+01       9.98021e+00       3.49411e-04       2.17340e+02
 12.100      2.16280e+02       6.36710e+01       1.00942e+01       3.44377e-04       2.13763e+02
 12.200      2.15857e+02       6.31663e+01       1.01938e+01       3.39213e-04       2.10145e+02
 12.300      2.15463e+02       6.26292e+01       1.02754e+01       3.33922e-04       2.06491e+02
 12.400      2.15100e+02       6.20577e+01       1.03355e+01       3.28510e-04       2.02802e+02
 12.500      2.14771e+02       6.14497e+01       1.03705e+01       3.22982e-04       1.99083e+02
 12.600      2.14475e+02       6.08046e+01       1.03782e+01       3.17350e-04       1.95342e+02
 12.700      2.14210e+02       6.01260e+01       1.03593e+01       3.11643e-04       1.91593e+02
 12.800      2.13974e+02       5.94173e+01       1.03147e+01       3.05889e-04       1.87848e+02
 12.900      2.13764e+02       5.86822e+01       1.02456e+01       3.00116e-04       1.84122e+02
 13.000      2.13576e+02       5.79245e+01       1.01527e+01       2.94349e-04       1.80426e+02
 13.100      2.13409e+02       5.71477e+01       1.00372e+01       2.88613e-04       1.76771e+02
 13.200      2.13260e+02       5.63555e+01       9.90006e+00       2.82928e-04       1.73168e+02
 13.300      2.13125e+02       5.55516e+01       9.74217e+00       2.77317e-04       1.69626e+02
 13.400      2.13003e+02       5.47396e+01       9.56456e+00       2.71797e-04       1.66154e+02
 13.500      2.12890e+02       5.39231e+01       9.36821e+00       2.66386e-04       1.62760e+02
 13.600      2.12783e+02       5.31060e+01       9.15411e+00       2.61100e-04       1.59451e+02
 13.700      2.12681e+02       5.22917e+01       8.92324e+00       2.55954e-04       1.56233e+02
 13.800      2.12580e+02       5.14840e+01       8.67659e+00       2.50960e-04       1.53112e+02
 13.900      2.12477e+02       5.06865e+01       8.41515e+00       2.46132e-04       1.50093e+02
 14.000      2.12370e+02       4.99022e+01       8.13984e+00       2.41477e-04       1.47181e+02
 14.100      2.12260e+02       4.91316e+01       7.85143e+00       2.36988e-04       1.44370e+02
 14.200      2.12146e+02       4.83742e+01       7.55060e+00       2.32657e-04       1.41655e+02
 14.300      2.12030e+02       4.76297e+01       7.23805e+00       2.28473e-04       1.39031e+02
 14.400      2.11911e+02       4.68977e+01       6.91447e+00       2.24428e-04       1.36494e+02
 14.500      2.11792e+02       4.61778e+01       6.58057e+00       2.20515e-04       1.34038e+02
 14.600      2.11671e+02       4.54697e+01       6.23703e+00       2.16725e-04       1.31659e+02
 14.700      2.11550e+02       4.47729e+01       5.88455e+00       2.13050e-04       1.29353e+02
 14.800      2.11429e+02       4.40872e+01       5.52383e+00       2.09485e-04       1.27116e+02
 14.900      2.11309e+02       4.34120e+01       5.15556e+00       2.06023e-04       1.24944e+02
 15.000      2.11191e+02       4.27472e+01       4.78043e+00       2.02656e-04       1.22834e+02
 15.100      2.11075e+02       4.20922e+01       4.39914e+00       1.99380e-04       1.20781e+02
 15.200      2.10961e+02       4.14467e+01       4.01240e+00       1.96188e-04       1.18784e+02
 15.300      2.10850e+02       4.08104e+01       3.62088e+00       1.93076e-04       1.16838e+02
 15.400      2.10744e+02       4.01828e+01       3.22529e+00       1.90038e-04       1.14941e+02
 15.500      2.10641e+02       3.95636e+01       2.82632e+00       1.87069e-04       1.13091e+02
 15.600      2.10544e+02       3.89524e+01       2.42467e+00       1.84164e-04       1.11283e+02
 15.700      2.10452e+02       3.83489e+01       2.02103e+00       1.81320e-04       1.09517e+02
 15.800      2.10366e+02       3.77526e+01       1.61610e+00       1.78532e-04       1.07789e+02
 15.900      2.10287e+02       3.71632e+01       1.21057e+00       1.75796e-04       1.06097e+02
 16.000      2.10215e+02       3.65804e+01       8.05140e-01       1.73109e-04       1.04439e+02
 16.100      2.10151e+02       3.60037e+01       4.00499e-01       1.70466e-04       1.02813e+02
 16.200      2.10095e+02       3.54327e+01      -2.65474e-03       1.67864e-04       1.01218e+02
 16.300      2.10048e+02       3.48672e+01      -4.03618e-01       1.65301e-04       9.96498e+01
 16.400      2.10011e+02       3.43067e+01      -8.01750e-01       1.62773e-04       9.81086e+01
 16.500      2.09983e+02       3.37510e+01      -1.19647e+00       1.60280e-04       9.65929e+01
 16.600      2.09964e+02       3.31998e+01      -1.58720e+00       1.57820e-04       9.51021e+01
 16.700      2.09954e+02       3.26529e+01      -1.97339e+00       1.55394e-04       9.36352e+01
 16.800      2.09952e+02       3.21099e+01      -2.35446e+00       1.52999e-04       9.21915e+01
 16.900      2.09959e+02       3.15707e+01      -2.72985e+00       1.50636e-04       9.07702e+01
 17.000      2.09973e+02       3.10350e+01      -3.09900e+00       1.48303e-04       8.93706e+01
 17.100      2.09996e+02       3.05025e+01      -3.46133e+00       1.45999e-04       8.79921e+01
 17.200      2.10027e+02       2.99730e+01      -3.81629e+00       1.43725e-04       8.66340e+01
 17.300      2.10065e+02       2.94461e+01      -4.16330e+00       1.41479e-04       8.52956e+01
 17.400      2.10110e+02       2.89216e+01      -4.50180e+00       1.39261e-04       8.39763e+01
 17.500      2.10163e+02       2.83994e+01      -4.83122e+00       1.37069e-04       8.26756e+01
 17.600      2.10222e+02       2.78790e+01      -5.15100e+00       1.34904e-04       8.13928e+01
 17.700      2.10288e+02       2.73602e+01      -5.46057e+00       1.32766e-04       8.01275e+01
 17.800      2.10360e+02       2.68428e+01      -5.75935e+00       1.30652e-04       7.88792e+01
 17.900      2.10439e+02       2.63266e+01      -6.04680e+00       1.28563e-04       7.76472e+01
 18.000      2.10524e+02       2.58112e+01      -6.32234e+00       1.26499e-04       7.64313e+01
 18.100      2.10615e+02       2.52963e+01      -6.58541e+00       1.24459e-04       7.52308e+01
 18.200      2.10711e+02       2.47818e+01      -6.83544e+00       1.22442e-04       7.40454e+01
 18.300      2.10813e+02       2.42674e+01      -7.07185e+00       1.20447e-04       7.28747e+01
 18.400      2.10920e+02       2.37527e+01      -7.29410e+00       1.18476e-04       7.17182e+01
 18.500      2.11032e+02       2.32376e+01      -7.50160e+00       1.16527e-04       7.05756e+01
 18.600      2.11149e+02       2.27218e+01      -7.69382e+00       1.14599e-04       6.94465e+01
 18.700      2.11270e+02       2.22054e+01      -7.87085e+00       1.12693e-04       6.83310e+01
 18.800      2.11395e+02       2.16888e+01      -8.03337e+00       1.10811e-04       6.72294e+01
 18.900      2.11523e+02       2.11725e+01      -8.18216e+00       1.08953e-04       6.61420e+01
 19.000      2.11654e+02       2.06569e+01      -8.31793e+00       1.07119e-04       6.50692e+01
 19.100      2.11787e+02       2.01426e+01      -8.44142e+00       1.05311e-04       6.40112e+01
 19.200      2.11921e+02       1.96300e+01      -8.55339e+00       1.03530e-04       6.29683e+01
 19.300      2.12057e+02       1.91196e+01      -8.65456e+00       1.01775e-04       6.19407e+01
 19.400      2.12193e+02       1.86118e+01      -8.74568e+00       1.00048e-04       6.09286e+01
 19.500      2.12328e+02       1.81071e+01      -8.82748e+00       9.83491e-05       5.99322e+01
 19.600      2.12463e+02       1.76059e+01      -8.90071e+00       9.66786e-05       5.89516e+01
 19.700      2.12597e+02       1.71088e+01      -8.96611e+00       9.50370e-05       5.79870e+01
 19.800      2.12728e+02       1.66161e+01      -9.02441e+00       9.34247e-05       5.70385e+01
 19.900      2.12857e+02       1.61284e+01      -9.07636e+00       9.18420e-05       5.61062e+01
 20.000      2.12983e+02       1.56462e+01      -9.12269e+00       9.02891e-05       5.51901e+01
 20.100      2.13105e+02       1.51698e+01      -9.16414e+00       8.87662e-05       5.42904e+01
 20.200      2.13223e+02       1.46998e+01      -9.20146e+00       8.72736e-05       5.34070e+01
 20.300      2.13336e+02       1.42366e+01      -9.23538e+00       8.58112e-05       5.25400e+01
