# Data Source: NASA MERRA (version 2)
# Model Time = 2011-10-12 18:00:00
# Location = [  39.1026,  -84.5123 ]
# Fields = [ Z(km), T(K), U(m/s), V(m/s), R(g/cm3), P(mbar) ]
# Ground Height = 0.165
  0.000      2.91727e+02      -2.03998e+00       1.68809e-01       1.20632e-03       1.01000e+03
  0.100      2.91164e+02      -1.99893e+00       1.42288e-01       1.19457e-03       9.98233e+02
  0.200      2.90571e+02      -1.96124e+00       1.28073e-01       1.18307e-03       9.86604e+02
  0.300      2.89749e+02      -1.94921e+00       2.07660e-01       1.17258e-03       9.75098e+02
  0.400      2.88590e+02      -1.97444e+00       4.28238e-01       1.16354e-03       9.63702e+02
  0.500      2.87344e+02      -2.00469e+00       6.96195e-01       1.15488e-03       9.52403e+02
  0.600      2.86317e+02      -2.00487e+00       8.94917e-01       1.14538e-03       9.41191e+02
  0.700      2.85507e+02      -2.00488e+00       1.00907e+00       1.13505e-03       9.30069e+02
  0.800      2.84774e+02      -2.06150e+00       1.06977e+00       1.12449e-03       9.19047e+02
  0.900      2.84083e+02      -2.16667e+00       1.09472e+00       1.11383e-03       9.08130e+02
  1.000      2.83492e+02      -2.25415e+00       1.08942e+00       1.10287e-03       8.97320e+02
  1.100      2.83029e+02      -2.27645e+00       1.06284e+00       1.09150e-03       8.86618e+02
  1.200      2.82659e+02      -2.22663e+00       1.03167e+00       1.07987e-03       8.76025e+02
  1.300      2.82341e+02      -2.10241e+00       1.01347e+00       1.06815e-03       8.65543e+02
  1.400      2.82031e+02      -1.90154e+00       1.02580e+00       1.05651e-03       8.55175e+02
  1.500      2.81690e+02      -1.62209e+00       1.08550e+00       1.04511e-03       8.44922e+02
  1.600      2.81310e+02      -1.27011e+00       1.19260e+00       1.03397e-03       8.34784e+02
  1.700      2.80918e+02      -8.59729e-01       1.33012e+00       1.02297e-03       8.24758e+02
  1.800      2.80545e+02      -4.05404e-01       1.48037e+00       1.01202e-03       8.14842e+02
  1.900      2.80219e+02       7.83912e-02       1.62564e+00       1.00100e-03       8.05035e+02
  2.000      2.79968e+02       5.77415e-01       1.74857e+00       9.89827e-04       7.95333e+02
  2.100      2.79795e+02       1.08313e+00       1.84077e+00       9.78486e-04       7.85736e+02
  2.200      2.79678e+02       1.59297e+00       1.90324e+00       9.67071e-04       7.76246e+02
  2.300      2.79593e+02       2.10464e+00       1.93739e+00       9.55672e-04       7.66862e+02
  2.400      2.79514e+02       2.61586e+00       1.94467e+00       9.44375e-04       7.57584e+02
  2.500      2.79419e+02       3.12433e+00       1.92649e+00       9.33264e-04       7.48414e+02
  2.600      2.79287e+02       3.62388e+00       1.88663e+00       9.22399e-04       7.39351e+02
  2.700      2.79109e+02       4.09897e+00       1.83438e+00       9.11802e-04       7.30392e+02
  2.800      2.78878e+02       4.53272e+00       1.77985e+00       9.01488e-04       7.21532e+02
  2.900      2.78587e+02       4.90823e+00       1.73318e+00       8.91469e-04       7.12770e+02
  3.000      2.78229e+02       5.20863e+00       1.70448e+00       8.81760e-04       7.04101e+02
  3.100      2.77798e+02       5.41791e+00       1.70355e+00       8.72370e-04       6.95523e+02
  3.200      2.77298e+02       5.53872e+00       1.73330e+00       8.63275e-04       6.87033e+02
  3.300      2.76748e+02       5.59126e+00       1.79022e+00       8.54413e-04       6.78632e+02
  3.400      2.76165e+02       5.59639e+00       1.87053e+00       8.45727e-04       6.70317e+02
  3.500      2.75566e+02       5.57500e+00       1.97044e+00       8.37160e-04       6.62088e+02
  3.600      2.74970e+02       5.54794e+00       2.08617e+00       8.28655e-04       6.53945e+02
  3.700      2.74393e+02       5.53570e+00       2.21413e+00       8.20163e-04       6.45885e+02
  3.800      2.73841e+02       5.55037e+00       2.35468e+00       8.11670e-04       6.37910e+02
  3.900      2.73303e+02       5.59585e+00       2.51202e+00       8.03203e-04       6.30016e+02
  4.000      2.72772e+02       5.67572e+00       2.69051e+00       7.94788e-04       6.22205e+02
  4.100      2.72239e+02       5.79356e+00       2.89451e+00       7.86450e-04       6.14473e+02
  4.200      2.71694e+02       5.95296e+00       3.12837e+00       7.78215e-04       6.06822e+02
  4.300      2.71129e+02       6.15750e+00       3.39646e+00       7.70105e-04       5.99249e+02
  4.400      2.70536e+02       6.40739e+00       3.69973e+00       7.62138e-04       5.91754e+02
  4.500      2.69917e+02       6.69291e+00       4.02899e+00       7.54310e-04       5.84335e+02
  4.600      2.69272e+02       7.00247e+00       4.37318e+00       7.46615e-04       5.76993e+02
  4.700      2.68603e+02       7.32449e+00       4.72125e+00       7.39047e-04       5.69725e+02
  4.800      2.67911e+02       7.64739e+00       5.06215e+00       7.31600e-04       5.62531e+02
  4.900      2.67198e+02       7.95958e+00       5.38481e+00       7.24267e-04       5.55409e+02
  5.000      2.66464e+02       8.24953e+00       5.67820e+00       7.17044e-04       5.48360e+02
  5.100      2.65711e+02       8.50981e+00       5.93448e+00       7.09924e-04       5.41381e+02
  5.200      2.64941e+02       8.74145e+00       6.15232e+00       7.02901e-04       5.34473e+02
  5.300      2.64156e+02       8.94651e+00       6.33117e+00       6.95970e-04       5.27633e+02
  5.400      2.63356e+02       9.12702e+00       6.47047e+00       6.89124e-04       5.20862e+02
  5.500      2.62544e+02       9.28503e+00       6.56967e+00       6.82359e-04       5.14158e+02
  5.600      2.61721e+02       9.42258e+00       6.62822e+00       6.75669e-04       5.07521e+02
  5.700      2.60889e+02       9.54173e+00       6.64557e+00       6.69048e-04       5.00950e+02
  5.800      2.60049e+02       9.64431e+00       6.62198e+00       6.62491e-04       4.94444e+02
  5.900      2.59203e+02       9.73092e+00       6.56273e+00       6.55991e-04       4.88001e+02
  6.000      2.58354e+02       9.80168e+00       6.47505e+00       6.49542e-04       4.81621e+02
  6.100      2.57504e+02       9.85671e+00       6.36615e+00       6.43137e-04       4.75302e+02
  6.200      2.56655e+02       9.89610e+00       6.24326e+00       6.36769e-04       4.69043e+02
  6.300      2.55808e+02       9.91999e+00       6.11359e+00       6.30432e-04       4.62843e+02
  6.400      2.54966e+02       9.92848e+00       5.98437e+00       6.24120e-04       4.56701e+02
  6.500      2.54131e+02       9.92168e+00       5.86282e+00       6.17826e-04       4.50616e+02
  6.600      2.53306e+02       9.89973e+00       5.75501e+00       6.11546e-04       4.44586e+02
  6.700      2.52489e+02       9.86280e+00       5.66071e+00       6.05285e-04       4.38616e+02
  6.800      2.51681e+02       9.81110e+00       5.57758e+00       5.99048e-04       4.32707e+02
  6.900      2.50880e+02       9.74482e+00       5.50327e+00       5.92842e-04       4.26862e+02
  7.000      2.50088e+02       9.66417e+00       5.43544e+00       5.86674e-04       4.21086e+02
  7.100      2.49302e+02       9.56934e+00       5.37173e+00       5.80548e-04       4.15380e+02
  7.200      2.48522e+02       9.46054e+00       5.30981e+00       5.74471e-04       4.09746e+02
  7.300      2.47748e+02       9.33796e+00       5.24731e+00       5.68447e-04       4.04188e+02
  7.400      2.46980e+02       9.20182e+00       5.18191e+00       5.62483e-04       3.98706e+02
  7.500      2.46216e+02       9.05415e+00       5.11149e+00       5.56578e-04       3.93300e+02
  7.600      2.45453e+02       8.90060e+00       5.03445e+00       5.50727e-04       3.87959e+02
  7.700      2.44688e+02       8.74728e+00       4.94924e+00       5.44920e-04       3.82673e+02
  7.800      2.43918e+02       8.60027e+00       4.85432e+00       5.39152e-04       3.77431e+02
  7.900      2.43141e+02       8.46568e+00       4.74813e+00       5.33416e-04       3.72226e+02
  8.000      2.42353e+02       8.34960e+00       4.62913e+00       5.27704e-04       3.67047e+02
  8.100      2.41551e+02       8.25814e+00       4.49577e+00       5.22012e-04       3.61886e+02
  8.200      2.40733e+02       8.19739e+00       4.34651e+00       5.16333e-04       3.56736e+02
  8.300      2.39894e+02       8.17344e+00       4.17979e+00       5.10662e-04       3.51589e+02
  8.400      2.39034e+02       8.19164e+00       3.99450e+00       5.04996e-04       3.46441e+02
  8.500      2.38153e+02       8.24927e+00       3.79408e+00       4.99352e-04       3.41307e+02
  8.600      2.37259e+02       8.33872e+00       3.58471e+00       4.93757e-04       3.36215e+02
  8.700      2.36355e+02       8.45235e+00       3.37263e+00       4.88237e-04       3.31190e+02
  8.800      2.35448e+02       8.58248e+00       3.16406e+00       4.82817e-04       3.26257e+02
  8.900      2.34544e+02       8.72146e+00       2.96525e+00       4.77520e-04       3.21439e+02
  9.000      2.33648e+02       8.86162e+00       2.78241e+00       4.72370e-04       3.16757e+02
  9.100      2.32765e+02       8.99531e+00       2.62179e+00       4.67387e-04       3.12231e+02
  9.200      2.31901e+02       9.11486e+00       2.48960e+00       4.62590e-04       3.07880e+02
  9.300      2.31062e+02       9.21262e+00       2.39209e+00       4.58000e-04       3.03722e+02
  9.400      2.30253e+02       9.28091e+00       2.33547e+00       4.53634e-04       2.99774e+02
  9.500      2.29480e+02       9.31397e+00       2.32431e+00       4.49500e-04       2.96044e+02
  9.600      2.28742e+02       9.31239e+00       2.35753e+00       4.45570e-04       2.92512e+02
  9.700      2.28042e+02       9.27805e+00       2.43288e+00       4.41811e-04       2.89156e+02
  9.800      2.27380e+02       9.21288e+00       2.54811e+00       4.38190e-04       2.85954e+02
  9.900      2.26757e+02       9.11876e+00       2.70097e+00       4.34676e-04       2.82884e+02
 10.000      2.26175e+02       8.99762e+00       2.88920e+00       4.31238e-04       2.79926e+02
 10.100      2.25633e+02       8.85136e+00       3.11057e+00       4.27848e-04       2.77061e+02
 10.200      2.25134e+02       8.68188e+00       3.36280e+00       4.24477e-04       2.74269e+02
 10.300      2.24678e+02       8.49109e+00       3.64366e+00       4.21098e-04       2.71534e+02
 10.400      2.24265e+02       8.28089e+00       3.95089e+00       4.17683e-04       2.68838e+02
 10.500      2.23897e+02       8.05319e+00       4.28224e+00       4.14208e-04       2.66164e+02
 10.600      2.23575e+02       7.80989e+00       4.63546e+00       4.10648e-04       2.63496e+02
 10.700      2.23300e+02       7.55291e+00       5.00830e+00       4.06978e-04       2.60820e+02
 10.800      2.23072e+02       7.28414e+00       5.39851e+00       4.03178e-04       2.58121e+02
 10.900      2.22892e+02       7.00550e+00       5.80383e+00       3.99224e-04       2.55384e+02
 11.000      2.22763e+02       6.71889e+00       6.22202e+00       3.95097e-04       2.52596e+02
 11.100      2.22683e+02       6.42621e+00       6.65082e+00       3.90777e-04       2.49746e+02
 11.200      2.22653e+02       6.12975e+00       7.08754e+00       3.86256e-04       2.46823e+02
 11.300      2.22665e+02       5.83293e+00       7.52814e+00       3.81551e-04       2.43830e+02
 11.400      2.22713e+02       5.53941e+00       7.96831e+00       3.76682e-04       2.40770e+02
 11.500      2.22787e+02       5.25284e+00       8.40375e+00       3.71672e-04       2.37646e+02
 11.600      2.22880e+02       4.97686e+00       8.83016e+00       3.66540e-04       2.34463e+02
 11.700      2.22985e+02       4.71513e+00       9.24323e+00       3.61306e-04       2.31224e+02
 11.800      2.23093e+02       4.47130e+00       9.63865e+00       3.55990e-04       2.27932e+02
 11.900      2.23196e+02       4.24903e+00       1.00121e+01       3.50610e-04       2.24591e+02
 12.000      2.23288e+02       4.05195e+00       1.03594e+01       3.45183e-04       2.21206e+02
 12.100      2.23358e+02       3.88373e+00       1.06760e+01       3.39727e-04       2.17778e+02
 12.200      2.23401e+02       3.74800e+00       1.09578e+01       3.34257e-04       2.14313e+02
 12.300      2.23408e+02       3.64844e+00       1.12005e+01       3.28788e-04       2.10813e+02
 12.400      2.23372e+02       3.58868e+00       1.13997e+01       3.23335e-04       2.07283e+02
 12.500      2.23283e+02       3.57237e+00       1.15511e+01       3.17911e-04       2.03725e+02
 12.600      2.23135e+02       3.60317e+00       1.16504e+01       3.12530e-04       2.00144e+02
 12.700      2.22922e+02       3.68342e+00       1.16946e+01       3.07202e-04       1.96544e+02
 12.800      2.22647e+02       3.80955e+00       1.16867e+01       3.01935e-04       1.92936e+02
 12.900      2.22317e+02       3.97636e+00       1.16313e+01       2.96734e-04       1.89331e+02
 13.000      2.21938e+02       4.17860e+00       1.15328e+01       2.91604e-04       1.85741e+02
 13.100      2.21517e+02       4.41106e+00       1.13959e+01       2.86550e-04       1.82175e+02
 13.200      2.21059e+02       4.66852e+00       1.12251e+01       2.81576e-04       1.78643e+02
 13.300      2.20571e+02       4.94575e+00       1.10251e+01       2.76687e-04       1.75153e+02
 13.400      2.20059e+02       5.23752e+00       1.08004e+01       2.71886e-04       1.71715e+02
 13.500      2.19529e+02       5.53862e+00       1.05555e+01       2.67176e-04       1.68334e+02
 13.600      2.18989e+02       5.84381e+00       1.02952e+01       2.62561e-04       1.65019e+02
 13.700      2.18443e+02       6.14788e+00       1.00238e+01       2.58042e-04       1.61775e+02
 13.800      2.17899e+02       6.44561e+00       9.74612e+00       2.53621e-04       1.58607e+02
 13.900      2.17363e+02       6.73176e+00       9.46661e+00       2.49301e-04       1.55522e+02
 14.000      2.16841e+02       7.00112e+00       9.18987e+00       2.45084e-04       1.52524e+02
 14.100      2.16339e+02       7.24846e+00       8.92048e+00       2.40970e-04       1.49617e+02
 14.200      2.15863e+02       7.47005e+00       8.66177e+00       2.36959e-04       1.46802e+02
 14.300      2.15411e+02       7.66616e+00       8.41370e+00       2.33047e-04       1.44076e+02
 14.400      2.14983e+02       7.83773e+00       8.17568e+00       2.29230e-04       1.41435e+02
 14.500      2.14578e+02       7.98571e+00       7.94712e+00       2.25505e-04       1.38875e+02
 14.600      2.14196e+02       8.11102e+00       7.72743e+00       2.21867e-04       1.36391e+02
 14.700      2.13835e+02       8.21461e+00       7.51601e+00       2.18312e-04       1.33980e+02
 14.800      2.13495e+02       8.29742e+00       7.31227e+00       2.14838e-04       1.31638e+02
 14.900      2.13175e+02       8.36038e+00       7.11562e+00       2.11441e-04       1.29362e+02
 15.000      2.12874e+02       8.40444e+00       6.92546e+00       2.08117e-04       1.27148e+02
 15.100      2.12591e+02       8.43054e+00       6.74120e+00       2.04864e-04       1.24995e+02
 15.200      2.12325e+02       8.43962e+00       6.56225e+00       2.01678e-04       1.22897e+02
 15.300      2.12075e+02       8.43261e+00       6.38801e+00       1.98558e-04       1.20854e+02
 15.400      2.11842e+02       8.41046e+00       6.21790e+00       1.95500e-04       1.18861e+02
 15.500      2.11623e+02       8.37410e+00       6.05131e+00       1.92502e-04       1.16917e+02
 15.600      2.11418e+02       8.32447e+00       5.88766e+00       1.89561e-04       1.15020e+02
 15.700      2.11226e+02       8.26252e+00       5.72635e+00       1.86675e-04       1.13166e+02
 15.800      2.11047e+02       8.18918e+00       5.56678e+00       1.83842e-04       1.11354e+02
 15.900      2.10878e+02       8.10539e+00       5.40838e+00       1.81060e-04       1.09581e+02
 16.000      2.10721e+02       8.01209e+00       5.25053e+00       1.78326e-04       1.07846e+02
 16.100      2.10573e+02       7.91022e+00       5.09266e+00       1.75639e-04       1.06146e+02
 16.200      2.10434e+02       7.80073e+00       4.93416e+00       1.72997e-04       1.04481e+02
 16.300      2.10303e+02       7.68454e+00       4.77445e+00       1.70398e-04       1.02847e+02
 16.400      2.10180e+02       7.56260e+00       4.61292e+00       1.67840e-04       1.01244e+02
 16.500      2.10062e+02       7.43585e+00       4.44900e+00       1.65322e-04       9.96692e+01
 16.600      2.09951e+02       7.30499e+00       4.28238e+00       1.62842e-04       9.81220e+01
 16.700      2.09846e+02       7.17017e+00       4.11342e+00       1.60399e-04       9.66013e+01
 16.800      2.09746e+02       7.03152e+00       3.94255e+00       1.57991e-04       9.51060e+01
 16.900      2.09653e+02       6.88913e+00       3.77021e+00       1.55617e-04       9.36352e+01
 17.000      2.09567e+02       6.74310e+00       3.59684e+00       1.53275e-04       9.21880e+01
 17.100      2.09487e+02       6.59354e+00       3.42286e+00       1.50964e-04       9.07637e+01
 17.200      2.09414e+02       6.44055e+00       3.24872e+00       1.48683e-04       8.93614e+01
 17.300      2.09348e+02       6.28425e+00       3.07486e+00       1.46432e-04       8.79803e+01
 17.400      2.09289e+02       6.12471e+00       2.90169e+00       1.44208e-04       8.66198e+01
 17.500      2.09238e+02       5.96207e+00       2.72968e+00       1.42010e-04       8.52790e+01
 17.600      2.09194e+02       5.79641e+00       2.55924e+00       1.39839e-04       8.39573e+01
 17.700      2.09158e+02       5.62784e+00       2.39081e+00       1.37692e-04       8.26541e+01
 17.800      2.09130e+02       5.45646e+00       2.22484e+00       1.35569e-04       8.13688e+01
 17.900      2.09110e+02       5.28238e+00       2.06174e+00       1.33469e-04       8.01007e+01
 18.000      2.09099e+02       5.10571e+00       1.90197e+00       1.31391e-04       7.88493e+01
 18.100      2.09096e+02       4.92653e+00       1.74596e+00       1.29334e-04       7.76140e+01
 18.200      2.09101e+02       4.74497e+00       1.59414e+00       1.27298e-04       7.63944e+01
 18.300      2.09116e+02       4.56112e+00       1.44695e+00       1.25283e-04       7.51899e+01
 18.400      2.09139e+02       4.37508e+00       1.30482e+00       1.23286e-04       7.40000e+01
 18.500      2.09172e+02       4.18696e+00       1.16819e+00       1.21308e-04       7.28244e+01
 18.600      2.09214e+02       3.99686e+00       1.03749e+00       1.19349e-04       7.16625e+01
 18.700      2.09266e+02       3.80489e+00       9.13168e-01       1.17407e-04       7.05140e+01
 18.800      2.09328e+02       3.61117e+00       7.95632e-01       1.15482e-04       6.93786e+01
 18.900      2.09399e+02       3.41603e+00       6.84952e-01       1.13576e-04       6.82562e+01
 19.000      2.09479e+02       3.22003e+00       5.80898e-01       1.11688e-04       6.71473e+01
 19.100      2.09567e+02       3.02373e+00       4.83224e-01       1.09820e-04       6.60523e+01
 19.200      2.09662e+02       2.82769e+00       3.91686e-01       1.07975e-04       6.49717e+01
 19.300      2.09764e+02       2.63246e+00       3.06044e-01       1.06151e-04       6.39057e+01
 19.400      2.09872e+02       2.43860e+00       2.26048e-01       1.04352e-04       6.28546e+01
 19.500      2.09985e+02       2.24668e+00       1.51457e-01       1.02577e-04       6.18188e+01
 19.600      2.10103e+02       2.05724e+00       8.20263e-02       1.00827e-04       6.07985e+01
 19.700      2.10225e+02       1.87085e+00       1.75122e-02       9.91040e-05       5.97939e+01
 19.800      2.10349e+02       1.68807e+00      -4.23281e-02       9.74076e-05       5.88052e+01
 19.900      2.10476e+02       1.50944e+00      -9.77410e-02       9.57388e-05       5.78326e+01
 20.000      2.10605e+02       1.33554e+00      -1.48969e-01       9.40981e-05       5.68763e+01
 20.100      2.10734e+02       1.16691e+00      -1.96257e-01       9.24861e-05       5.59363e+01
 20.200      2.10864e+02       1.00413e+00      -2.39849e-01       9.09033e-05       5.50129e+01
 20.300      2.10994e+02       8.47736e-01      -2.79988e-01       8.93499e-05       5.41060e+01
