# Data Source: NASA MERRA (version 2)
# Model Calculated 2019-07-19 00:48:31
# Model Time = 2011-09-21 18:00:00
# Location = [  39.1026,  -84.5123 ]
# Fields = [ Z(km), T(K), U(m/s), V(m/s), R(g/cm3), P(mbar) ]
# Ground Height = 0.165
  0.000      2.96579e+02       1.48679e+00       2.70525e+00       1.19343e-03       1.01582e+03
  0.100      2.95788e+02       1.60286e+00       3.02389e+00       1.18286e-03       1.00415e+03
  0.200      2.95012e+02       1.69931e+00       3.28938e+00       1.17234e-03       9.92606e+02
  0.300      2.94210e+02       1.83095e+00       3.65017e+00       1.16203e-03       9.81196e+02
  0.400      2.93342e+02       2.05065e+00       4.24834e+00       1.15207e-03       9.69918e+02
  0.500      2.92435e+02       2.35459e+00       5.03905e+00       1.14235e-03       9.58758e+02
  0.600      2.91592e+02       2.67480e+00       5.76620e+00       1.13243e-03       9.47696e+02
  0.700      2.90869e+02       2.96808e+00       6.26720e+00       1.12209e-03       9.36719e+02
  0.800      2.90218e+02       3.25261e+00       6.60786e+00       1.11156e-03       9.25842e+02
  0.900      2.89584e+02       3.54948e+00       6.86713e+00       1.10104e-03       9.15078e+02
  1.000      2.88976e+02       3.85368e+00       7.03856e+00       1.09051e-03       9.04422e+02
  1.100      2.88420e+02       4.15234e+00       7.09089e+00       1.07986e-03       8.93868e+02
  1.200      2.87919e+02       4.43907e+00       7.02682e+00       1.06908e-03       8.83413e+02
  1.300      2.87459e+02       4.71263e+00       6.87649e+00       1.05824e-03       8.73058e+02
  1.400      2.87024e+02       4.97197e+00       6.67080e+00       1.04740e-03       8.62804e+02
  1.500      2.86597e+02       5.21601e+00       6.44067e+00       1.03662e-03       8.52653e+02
  1.600      2.86163e+02       5.44398e+00       6.21506e+00       1.02596e-03       8.42606e+02
  1.700      2.85719e+02       5.65762e+00       6.00529e+00       1.01543e-03       8.32662e+02
  1.800      2.85262e+02       5.86002e+00       5.81324e+00       1.00503e-03       8.22820e+02
  1.900      2.84793e+02       6.05430e+00       5.64071e+00       9.94767e-04       8.13079e+02
  2.000      2.84311e+02       6.24358e+00       5.48949e+00       9.84636e-04       8.03437e+02
  2.100      2.83817e+02       6.43088e+00       5.36120e+00       9.74636e-04       7.93894e+02
  2.200      2.83310e+02       6.61804e+00       5.25479e+00       9.64762e-04       7.84447e+02
  2.300      2.82792e+02       6.80608e+00       5.16744e+00       9.55007e-04       7.75096e+02
  2.400      2.82264e+02       6.99604e+00       5.09630e+00       9.45364e-04       7.65838e+02
  2.500      2.81728e+02       7.18890e+00       5.03849e+00       9.35827e-04       7.56672e+02
  2.600      2.81185e+02       7.38568e+00       4.99115e+00       9.26388e-04       7.47596e+02
  2.700      2.80636e+02       7.58541e+00       4.95085e+00       9.17042e-04       7.38609e+02
  2.800      2.80085e+02       7.78345e+00       4.91317e+00       9.07779e-04       7.29712e+02
  2.900      2.79533e+02       7.97479e+00       4.87358e+00       8.98591e-04       7.20904e+02
  3.000      2.78985e+02       8.15440e+00       4.82753e+00       8.89469e-04       7.12186e+02
  3.100      2.78442e+02       8.31728e+00       4.77048e+00       8.80405e-04       7.03556e+02
  3.200      2.77906e+02       8.45874e+00       4.69819e+00       8.71392e-04       6.95014e+02
  3.300      2.77377e+02       8.57957e+00       4.61135e+00       8.62437e-04       6.86561e+02
  3.400      2.76846e+02       8.68497e+00       4.51452e+00       8.53559e-04       6.78194e+02
  3.500      2.76308e+02       8.78023e+00       4.41241e+00       8.44775e-04       6.69910e+02
  3.600      2.75756e+02       8.87065e+00       4.30971e+00       8.36104e-04       6.61710e+02
  3.700      2.75185e+02       8.96154e+00       4.21113e+00       8.27561e-04       6.53591e+02
  3.800      2.74587e+02       9.05791e+00       4.12144e+00       8.19161e-04       6.45551e+02
  3.900      2.73964e+02       9.15941e+00       4.04719e+00       8.10900e-04       6.37591e+02
  4.000      2.73324e+02       9.26105e+00       3.99640e+00       8.02751e-04       6.29709e+02
  4.100      2.72675e+02       9.35769e+00       3.97718e+00       7.94691e-04       6.21906e+02
  4.200      2.72025e+02       9.44419e+00       3.99759e+00       7.86697e-04       6.14182e+02
  4.300      2.71381e+02       9.51540e+00       4.06574e+00       7.78746e-04       6.06537e+02
  4.400      2.70753e+02       9.56620e+00       4.18970e+00       7.70816e-04       5.98970e+02
  4.500      2.70144e+02       9.59437e+00       4.37384e+00       7.62893e-04       5.91482e+02
  4.600      2.69555e+02       9.60552e+00       4.61259e+00       7.54981e-04       5.84071e+02
  4.700      2.68982e+02       9.60656e+00       4.89874e+00       7.47089e-04       5.76737e+02
  4.800      2.68423e+02       9.60439e+00       5.22509e+00       7.39223e-04       5.69479e+02
  4.900      2.67876e+02       9.60592e+00       5.58445e+00       7.31392e-04       5.62297e+02
  5.000      2.67337e+02       9.61803e+00       5.96959e+00       7.23603e-04       5.55190e+02
  5.100      2.66805e+02       9.64764e+00       6.37331e+00       7.15862e-04       5.48158e+02
  5.200      2.66277e+02       9.70051e+00       6.78748e+00       7.08176e-04       5.41199e+02
  5.300      2.65750e+02       9.78034e+00       7.20223e+00       7.00553e-04       5.34314e+02
  5.400      2.65221e+02       9.89060e+00       7.60751e+00       6.93001e-04       5.27502e+02
  5.500      2.64688e+02       1.00348e+01       7.99327e+00       6.85527e-04       5.20764e+02
  5.600      2.64147e+02       1.02163e+01       8.34946e+00       6.78138e-04       5.14098e+02
  5.700      2.63596e+02       1.04386e+01       8.66601e+00       6.70841e-04       5.07505e+02
  5.800      2.63032e+02       1.07052e+01       8.93289e+00       6.63643e-04       5.00985e+02
  5.900      2.62452e+02       1.10179e+01       9.14189e+00       6.56548e-04       4.94536e+02
  6.000      2.61856e+02       1.13677e+01       9.29664e+00       6.49556e-04       4.88158e+02
  6.100      2.61244e+02       1.17413e+01       9.40536e+00       6.42661e-04       4.81848e+02
  6.200      2.60617e+02       1.21255e+01       9.47630e+00       6.35859e-04       4.75604e+02
  6.300      2.59974e+02       1.25072e+01       9.51770e+00       6.29147e-04       4.69423e+02
  6.400      2.59317e+02       1.28730e+01       9.53780e+00       6.22521e-04       4.63305e+02
  6.500      2.58645e+02       1.32097e+01       9.54486e+00       6.15976e-04       4.57247e+02
  6.600      2.57960e+02       1.35042e+01       9.54711e+00       6.09510e-04       4.51247e+02
  6.700      2.57260e+02       1.37450e+01       9.55209e+00       6.03119e-04       4.45304e+02
  6.800      2.56547e+02       1.39342e+01       9.56191e+00       5.96803e-04       4.39420e+02
  6.900      2.55821e+02       1.40804e+01       9.57620e+00       5.90566e-04       4.33596e+02
  7.000      2.55082e+02       1.41918e+01       9.59456e+00       5.84407e-04       4.27836e+02
  7.100      2.54331e+02       1.42771e+01       9.61661e+00       5.78331e-04       4.22141e+02
  7.200      2.53569e+02       1.43445e+01       9.64195e+00       5.72337e-04       4.16514e+02
  7.300      2.52795e+02       1.44027e+01       9.67021e+00       5.66428e-04       4.10956e+02
  7.400      2.52011e+02       1.44599e+01       9.70098e+00       5.60605e-04       4.05470e+02
  7.500      2.51217e+02       1.45248e+01       9.73388e+00       5.54870e-04       4.00057e+02
  7.600      2.50413e+02       1.46034e+01       9.76905e+00       5.49220e-04       3.94716e+02
  7.700      2.49600e+02       1.46932e+01       9.80879e+00       5.43642e-04       3.89440e+02
  7.800      2.48781e+02       1.47890e+01       9.85595e+00       5.38120e-04       3.84218e+02
  7.900      2.47956e+02       1.48856e+01       9.91341e+00       5.32637e-04       3.79043e+02
  8.000      2.47128e+02       1.49781e+01       9.98401e+00       5.27179e-04       3.73905e+02
  8.100      2.46297e+02       1.50613e+01       1.00706e+01       5.21730e-04       3.68796e+02
  8.200      2.45465e+02       1.51302e+01       1.01761e+01       5.16276e-04       3.63709e+02
  8.300      2.44634e+02       1.51796e+01       1.03033e+01       5.10805e-04       3.58635e+02
  8.400      2.43805e+02       1.52045e+01       1.04551e+01       5.05302e-04       3.53569e+02
  8.500      2.42979e+02       1.51998e+01       1.06343e+01       4.99756e-04       3.48504e+02
  8.600      2.42158e+02       1.51641e+01       1.08415e+01       4.94172e-04       3.43446e+02
  8.700      2.41341e+02       1.51019e+01       1.10735e+01       4.88587e-04       3.38419e+02
  8.800      2.40527e+02       1.50184e+01       1.13267e+01       4.83037e-04       3.33447e+02
  8.900      2.39717e+02       1.49189e+01       1.15974e+01       4.77558e-04       3.28555e+02
  9.000      2.38910e+02       1.48085e+01       1.18819e+01       4.72183e-04       3.23763e+02
  9.100      2.38106e+02       1.46925e+01       1.21767e+01       4.66944e-04       3.19093e+02
  9.200      2.37303e+02       1.45760e+01       1.24782e+01       4.61873e-04       3.14563e+02
  9.300      2.36502e+02       1.44643e+01       1.27827e+01       4.56999e-04       3.10193e+02
  9.400      2.35703e+02       1.43626e+01       1.30865e+01       4.52350e-04       3.05999e+02
  9.500      2.34904e+02       1.42760e+01       1.33861e+01       4.47953e-04       3.01998e+02
  9.600      2.34106e+02       1.42097e+01       1.36780e+01       4.43833e-04       2.98204e+02
  9.700      2.33308e+02       1.41661e+01       1.39609e+01       4.39986e-04       2.94612e+02
  9.800      2.32512e+02       1.41451e+01       1.42361e+01       4.36382e-04       2.91201e+02
  9.900      2.31717e+02       1.41463e+01       1.45051e+01       4.32986e-04       2.87947e+02
 10.000      2.30924e+02       1.41693e+01       1.47692e+01       4.29768e-04       2.84830e+02
 10.100      2.30135e+02       1.42138e+01       1.50299e+01       4.26697e-04       2.81828e+02
 10.200      2.29349e+02       1.42794e+01       1.52885e+01       4.23745e-04       2.78922e+02
 10.300      2.28568e+02       1.43658e+01       1.55465e+01       4.20882e-04       2.76094e+02
 10.400      2.27791e+02       1.44725e+01       1.58053e+01       4.18081e-04       2.73324e+02
 10.500      2.27019e+02       1.45993e+01       1.60663e+01       4.15314e-04       2.70596e+02
 10.600      2.26254e+02       1.47458e+01       1.63308e+01       4.12557e-04       2.67893e+02
 10.700      2.25495e+02       1.49116e+01       1.66004e+01       4.09782e-04       2.65199e+02
 10.800      2.24743e+02       1.50964e+01       1.68763e+01       4.06966e-04       2.62498e+02
 10.900      2.24000e+02       1.52998e+01       1.71601e+01       4.04083e-04       2.59776e+02
 11.000      2.23264e+02       1.55215e+01       1.74531e+01       4.01110e-04       2.57018e+02
 11.100      2.22538e+02       1.57611e+01       1.77567e+01       3.98025e-04       2.54212e+02
 11.200      2.21821e+02       1.60182e+01       1.80724e+01       3.94805e-04       2.51343e+02
 11.300      2.21114e+02       1.62925e+01       1.84013e+01       3.91431e-04       2.48401e+02
 11.400      2.20419e+02       1.65825e+01       1.87416e+01       3.87892e-04       2.45381e+02
 11.500      2.19737e+02       1.68860e+01       1.90884e+01       3.84190e-04       2.42288e+02
 11.600      2.19071e+02       1.72008e+01       1.94368e+01       3.80324e-04       2.39123e+02
 11.700      2.18421e+02       1.75244e+01       1.97818e+01       3.76298e-04       2.35890e+02
 11.800      2.17791e+02       1.78547e+01       2.01187e+01       3.72112e-04       2.32593e+02
 11.900      2.17182e+02       1.81894e+01       2.04424e+01       3.67768e-04       2.29234e+02
 12.000      2.16595e+02       1.85260e+01       2.07480e+01       3.63270e-04       2.25819e+02
 12.100      2.16033e+02       1.88625e+01       2.10306e+01       3.58619e-04       2.22349e+02
 12.200      2.15498e+02       1.91964e+01       2.12854e+01       3.53819e-04       2.18830e+02
 12.300      2.14991e+02       1.95255e+01       2.15074e+01       3.48873e-04       2.15264e+02
 12.400      2.14515e+02       1.98475e+01       2.16916e+01       3.43786e-04       2.11654e+02
 12.500      2.14070e+02       2.01602e+01       2.18332e+01       3.38561e-04       2.08006e+02
 12.600      2.13660e+02       2.04611e+01       2.19273e+01       3.33204e-04       2.04322e+02
 12.700      2.13286e+02       2.07480e+01       2.19688e+01       3.27719e-04       2.00607e+02
 12.800      2.12949e+02       2.10189e+01       2.19540e+01       3.22113e-04       1.96864e+02
 12.900      2.12649e+02       2.12721e+01       2.18845e+01       3.16412e-04       1.93107e+02
 13.000      2.12383e+02       2.15066e+01       2.17650e+01       3.10644e-04       1.89349e+02
 13.100      2.12149e+02       2.17212e+01       2.15996e+01       3.04836e-04       1.85605e+02
 13.200      2.11945e+02       2.19148e+01       2.13927e+01       2.99016e-04       1.81886e+02
 13.300      2.11769e+02       2.20863e+01       2.11488e+01       2.93206e-04       1.78204e+02
 13.400      2.11619e+02       2.22344e+01       2.08721e+01       2.87432e-04       1.74571e+02
 13.500      2.11493e+02       2.23582e+01       2.05671e+01       2.81713e-04       1.70995e+02
 13.600      2.11388e+02       2.24563e+01       2.02381e+01       2.76069e-04       1.67487e+02
 13.700      2.11303e+02       2.25278e+01       1.98895e+01       2.70519e-04       1.64053e+02
 13.800      2.11235e+02       2.25714e+01       1.95255e+01       2.65079e-04       1.60703e+02
 13.900      2.11182e+02       2.25859e+01       1.91507e+01       2.59765e-04       1.57442e+02
 14.000      2.11143e+02       2.25704e+01       1.87693e+01       2.54590e-04       1.54277e+02
 14.100      2.11114e+02       2.25235e+01       1.83857e+01       2.49568e-04       1.51213e+02
 14.200      2.11095e+02       2.24443e+01       1.80041e+01       2.44709e-04       1.48255e+02
 14.300      2.11083e+02       2.23332e+01       1.76264e+01       2.40012e-04       1.45402e+02
 14.400      2.11079e+02       2.21918e+01       1.72529e+01       2.35470e-04       1.42647e+02
 14.500      2.11082e+02       2.20214e+01       1.68837e+01       2.31075e-04       1.39987e+02
 14.600      2.11093e+02       2.18239e+01       1.65188e+01       2.26819e-04       1.37415e+02
 14.700      2.11109e+02       2.16006e+01       1.61584e+01       2.22694e-04       1.34927e+02
 14.800      2.11133e+02       2.13533e+01       1.58025e+01       2.18695e-04       1.32519e+02
 14.900      2.11162e+02       2.10833e+01       1.54515e+01       2.14815e-04       1.30185e+02
 15.000      2.11197e+02       2.07924e+01       1.51052e+01       2.11047e-04       1.27923e+02
 15.100      2.11238e+02       2.04821e+01       1.47639e+01       2.07386e-04       1.25728e+02
 15.200      2.11283e+02       2.01539e+01       1.44277e+01       2.03827e-04       1.23597e+02
 15.300      2.11334e+02       1.98094e+01       1.40967e+01       2.00363e-04       1.21526e+02
 15.400      2.11389e+02       1.94502e+01       1.37710e+01       1.96991e-04       1.19512e+02
 15.500      2.11449e+02       1.90779e+01       1.34508e+01       1.93705e-04       1.17551e+02
 15.600      2.11512e+02       1.86940e+01       1.31361e+01       1.90500e-04       1.15641e+02
 15.700      2.11580e+02       1.83000e+01       1.28271e+01       1.87373e-04       1.13779e+02
 15.800      2.11650e+02       1.78977e+01       1.25239e+01       1.84320e-04       1.11962e+02
 15.900      2.11724e+02       1.74884e+01       1.22266e+01       1.81335e-04       1.10188e+02
 16.000      2.11800e+02       1.70738e+01       1.19353e+01       1.78417e-04       1.08454e+02
 16.100      2.11879e+02       1.66555e+01       1.16502e+01       1.75560e-04       1.06757e+02
 16.200      2.11961e+02       1.62349e+01       1.13714e+01       1.72762e-04       1.05096e+02
 16.300      2.12044e+02       1.58138e+01       1.10989e+01       1.70020e-04       1.03468e+02
 16.400      2.12129e+02       1.53936e+01       1.08330e+01       1.67330e-04       1.01872e+02
 16.500      2.12215e+02       1.49759e+01       1.05737e+01       1.64689e-04       1.00305e+02
 16.600      2.12302e+02       1.45622e+01       1.03211e+01       1.62096e-04       9.87658e+01
 16.700      2.12390e+02       1.41530e+01       1.00752e+01       1.59547e-04       9.72531e+01
 16.800      2.12479e+02       1.37483e+01       9.83564e+00       1.57041e-04       9.57659e+01
 16.900      2.12568e+02       1.33482e+01       9.60232e+00       1.54578e-04       9.43035e+01
 17.000      2.12659e+02       1.29528e+01       9.37503e+00       1.52155e-04       9.28650e+01
 17.100      2.12750e+02       1.25621e+01       9.15356e+00       1.49771e-04       9.14494e+01
 17.200      2.12843e+02       1.21764e+01       8.93771e+00       1.47426e-04       9.00562e+01
 17.300      2.12936e+02       1.17956e+01       8.72730e+00       1.45117e-04       8.86844e+01
 17.400      2.13030e+02       1.14197e+01       8.52211e+00       1.42843e-04       8.73335e+01
 17.500      2.13124e+02       1.10490e+01       8.32195e+00       1.40604e-04       8.60026e+01
 17.600      2.13219e+02       1.06835e+01       8.12662e+00       1.38398e-04       8.46912e+01
 17.700      2.13315e+02       1.03232e+01       7.93592e+00       1.36225e-04       8.33987e+01
 17.800      2.13411e+02       9.96825e+00       7.74967e+00       1.34083e-04       8.21243e+01
 17.900      2.13509e+02       9.61872e+00       7.56764e+00       1.31971e-04       8.08676e+01
 18.000      2.13606e+02       9.27468e+00       7.38966e+00       1.29888e-04       7.96279e+01
 18.100      2.13704e+02       8.93621e+00       7.21552e+00       1.27834e-04       7.84047e+01
 18.200      2.13803e+02       8.60340e+00       7.04501e+00       1.25808e-04       7.71975e+01
 18.300      2.13902e+02       8.27632e+00       6.87796e+00       1.23808e-04       7.60059e+01
 18.400      2.14002e+02       7.95506e+00       6.71415e+00       1.21835e-04       7.48292e+01
 18.500      2.14102e+02       7.63969e+00       6.55338e+00       1.19887e-04       7.36672e+01
 18.600      2.14203e+02       7.33029e+00       6.39547e+00       1.17963e-04       7.25193e+01
 18.700      2.14304e+02       7.02695e+00       6.24020e+00       1.16064e-04       7.13852e+01
 18.800      2.14405e+02       6.72974e+00       6.08739e+00       1.14188e-04       7.02644e+01
 18.900      2.14507e+02       6.43871e+00       5.93685e+00       1.12334e-04       6.91567e+01
 19.000      2.14608e+02       6.15358e+00       5.78848e+00       1.10504e-04       6.80621e+01
 19.100      2.14710e+02       5.87395e+00       5.64225e+00       1.08697e-04       6.69810e+01
 19.200      2.14812e+02       5.59938e+00       5.49813e+00       1.06914e-04       6.59138e+01
 19.300      2.14914e+02       5.32947e+00       5.35608e+00       1.05156e-04       6.48606e+01
 19.400      2.15016e+02       5.06378e+00       5.21606e+00       1.03423e-04       6.38218e+01
 19.500      2.15118e+02       4.80189e+00       5.07803e+00       1.01715e-04       6.27976e+01
 19.600      2.15219e+02       4.54339e+00       4.94195e+00       1.00033e-04       6.17882e+01
 19.700      2.15320e+02       4.28786e+00       4.80780e+00       9.83770e-05       6.07938e+01
 19.800      2.15420e+02       4.03488e+00       4.67552e+00       9.67474e-05       5.98145e+01
 19.900      2.15519e+02       3.78401e+00       4.54509e+00       9.51442e-05       5.88505e+01
 20.000      2.15618e+02       3.53485e+00       4.41647e+00       9.35679e-05       5.79019e+01
 20.100      2.15715e+02       3.28696e+00       4.28962e+00       9.20183e-05       5.69688e+01
 20.200      2.15812e+02       3.03994e+00       4.16450e+00       9.04958e-05       5.60513e+01
