# Data Source: NASA GEOS5 Near-Real-Time
# Model Time = 2010-04-27 18:00:00
# Location = [  39.7393, -104.9900 ]
# Fields = [ Z(km), T(K), U(m/s), V(m/s), R(g/cm3), P(mbar) ]
# Ground Height = 1.589
  0.000      2.97936e+02       5.29281e-01       7.03545e-01       1.18175e-03       1.01049e+03
  0.100      2.97304e+02       5.06091e-01       7.39147e-01       1.17042e-03       9.98671e+02
  0.200      2.96671e+02       4.83800e-01       7.73960e-01       1.15920e-03       9.86994e+02
  0.300      2.96030e+02       4.70359e-01       8.01004e-01       1.14812e-03       9.75445e+02
  0.400      2.95376e+02       4.71417e-01       8.17028e-01       1.13718e-03       9.64019e+02
  0.500      2.94724e+02       4.82263e-01       8.35545e-01       1.12633e-03       9.52715e+02
  0.600      2.94087e+02       4.96688e-01       8.71401e-01       1.11553e-03       9.41537e+02
  0.700      2.93452e+02       5.20420e-01       9.10916e-01       1.10481e-03       9.30483e+02
  0.800      2.92798e+02       5.64481e-01       9.26903e-01       1.09427e-03       9.19548e+02
  0.900      2.92122e+02       6.23459e-01       9.11885e-01       1.08390e-03       9.08731e+02
  1.000      2.91447e+02       6.75493e-01       8.78190e-01       1.07362e-03       8.98032e+02
  1.100      2.90792e+02       7.05701e-01       8.33513e-01       1.06336e-03       8.87451e+02
  1.200      2.90163e+02       7.17124e-01       7.72766e-01       1.05310e-03       8.76987e+02
  1.300      2.89558e+02       7.14854e-01       6.93149e-01       1.04285e-03       8.66639e+02
  1.400      2.88943e+02       7.00413e-01       6.21353e-01       1.03273e-03       8.56406e+02
  1.500      2.88267e+02       6.74033e-01       5.96363e-01       1.02292e-03       8.46286e+02
  1.600      2.87507e+02       6.48684e-01       6.28953e-01       1.01349e-03       8.36275e+02
  1.700      2.86674e+02       6.55330e-01       6.89978e-01       1.00439e-03       8.26366e+02
  1.800      2.85790e+02       7.21272e-01       7.49035e-01       9.95533e-04       8.16552e+02
  1.900      2.84892e+02       8.43186e-01       7.86444e-01       9.86778e-04       8.06831e+02
  2.000      2.84030e+02       1.00633e+00       7.86696e-01       9.77960e-04       7.97201e+02
  2.100      2.83229e+02       1.20508e+00       7.45388e-01       9.68992e-04       7.87662e+02
  2.200      2.82474e+02       1.44965e+00       6.77361e-01       9.59928e-04       7.78215e+02
  2.300      2.81750e+02       1.75115e+00       5.98557e-01       9.50827e-04       7.68860e+02
  2.400      2.81044e+02       2.11232e+00       5.15085e-01       9.41731e-04       7.59598e+02
  2.500      2.80351e+02       2.53038e+00       4.26555e-01       9.32664e-04       7.50429e+02
  2.600      2.79662e+02       3.00052e+00       3.29943e-01       9.23655e-04       7.41354e+02
  2.700      2.78958e+02       3.50902e+00       2.10612e-01       9.14766e-04       7.32369e+02
  2.800      2.78216e+02       4.03959e+00       5.05992e-02       9.06061e-04       7.23471e+02
  2.900      2.77424e+02       4.58427e+00      -1.65002e-01       8.97579e-04       7.14659e+02
  3.000      2.76590e+02       5.15514e+00      -4.43714e-01       8.89285e-04       7.05927e+02
  3.100      2.75726e+02       5.76700e+00      -7.91869e-01       8.81137e-04       6.97273e+02
  3.200      2.74846e+02       6.41901e+00      -1.20866e+00       8.73086e-04       6.88697e+02
  3.300      2.73970e+02       7.08498e+00      -1.68169e+00       8.65069e-04       6.80199e+02
  3.400      2.73119e+02       7.73688e+00      -2.19738e+00       8.57025e-04       6.71780e+02
  3.500      2.72299e+02       8.36840e+00      -2.73735e+00       8.48933e-04       6.63440e+02
  3.600      2.71502e+02       9.00266e+00      -3.27667e+00       8.40827e-04       6.55181e+02
  3.700      2.70715e+02       9.66454e+00      -3.79026e+00       8.32744e-04       6.47002e+02
  3.800      2.69935e+02       1.03622e+01      -4.26918e+00       8.24696e-04       6.38903e+02
  3.900      2.69169e+02       1.10804e+01      -4.72726e+00       8.16660e-04       6.30882e+02
  4.000      2.68424e+02       1.18019e+01      -5.17994e+00       8.08615e-04       6.22938e+02
  4.100      2.67703e+02       1.25104e+01      -5.63060e+00       8.00551e-04       6.15069e+02
  4.200      2.67002e+02       1.31906e+01      -6.05980e+00       7.92485e-04       6.07278e+02
  4.300      2.66317e+02       1.38276e+01      -6.44559e+00       7.84435e-04       5.99567e+02
  4.400      2.65644e+02       1.44115e+01      -6.77112e+00       7.76413e-04       5.91937e+02
  4.500      2.64988e+02       1.49491e+01      -7.03694e+00       7.68408e-04       5.84387e+02
  4.600      2.64353e+02       1.54508e+01      -7.24725e+00       7.60405e-04       5.76913e+02
  4.700      2.63743e+02       1.59251e+01      -7.40699e+00       7.52389e-04       5.69515e+02
  4.800      2.63162e+02       1.63620e+01      -7.52789e+00       7.44355e-04       5.62193e+02
  4.900      2.62613e+02       1.67419e+01      -7.62526e+00       7.36300e-04       5.54949e+02
  5.000      2.62098e+02       1.70452e+01      -7.71445e+00       7.28224e-04       5.47785e+02
  5.100      2.61614e+02       1.72524e+01      -7.81287e+00       7.20136e-04       5.40702e+02
  5.200      2.61152e+02       1.73445e+01      -7.94134e+00       7.12067e-04       5.33699e+02
  5.300      2.60701e+02       1.73025e+01      -8.12097e+00       7.04045e-04       5.26775e+02
  5.400      2.60251e+02       1.71094e+01      -8.36918e+00       6.96098e-04       5.19929e+02
  5.500      2.59797e+02       1.67665e+01      -8.67014e+00       6.88235e-04       5.13159e+02
  5.600      2.59340e+02       1.62844e+01      -8.99056e+00       6.80454e-04       5.06466e+02
  5.700      2.58880e+02       1.56739e+01      -9.29695e+00       6.72757e-04       4.99848e+02
  5.800      2.58415e+02       1.49509e+01      -9.55873e+00       6.65143e-04       4.93305e+02
  5.900      2.57942e+02       1.41504e+01      -9.75604e+00       6.57625e-04       4.86835e+02
  6.000      2.57453e+02       1.33117e+01      -9.87150e+00       6.50215e-04       4.80438e+02
  6.100      2.56943e+02       1.24742e+01      -9.88779e+00       6.42927e-04       4.74112e+02
  6.200      2.56407e+02       1.16722e+01      -9.80002e+00       6.35772e-04       4.67857e+02
  6.300      2.55837e+02       1.09269e+01      -9.63622e+00       6.28764e-04       4.61671e+02
  6.400      2.55227e+02       1.02571e+01      -9.42975e+00       6.21917e-04       4.55554e+02
  6.500      2.54568e+02       9.68173e+00      -9.21396e+00       6.15243e-04       4.49504e+02
  6.600      2.53860e+02       9.21611e+00      -9.01510e+00       6.08747e-04       4.43520e+02
  6.700      2.53110e+02       8.86408e+00      -8.83710e+00       6.02400e-04       4.37599e+02
  6.800      2.52332e+02       8.62728e+00      -8.67952e+00       5.96171e-04       4.31742e+02
  6.900      2.51537e+02       8.50734e+00      -8.54196e+00       5.90027e-04       4.25946e+02
  7.000      2.50735e+02       8.50398e+00      -8.42475e+00       5.83942e-04       4.20210e+02
  7.100      2.49932e+02       8.60430e+00      -8.33327e+00       5.77904e-04       4.14534e+02
  7.200      2.49128e+02       8.79027e+00      -8.27491e+00       5.71912e-04       4.08915e+02
  7.300      2.48324e+02       9.04385e+00      -8.25709e+00       5.65963e-04       4.03355e+02
  7.400      2.47520e+02       9.34697e+00      -8.28711e+00       5.60053e-04       3.97852e+02
  7.500      2.46719e+02       9.68023e+00      -8.36687e+00       5.54180e-04       3.92406e+02
  7.600      2.45921e+02       1.00225e+01      -8.49120e+00       5.48344e-04       3.87017e+02
  7.700      2.45125e+02       1.03524e+01      -8.65442e+00       5.42544e-04       3.81685e+02
  7.800      2.44334e+02       1.06487e+01      -8.85085e+00       5.36778e-04       3.76410e+02
  7.900      2.43548e+02       1.08918e+01      -9.07546e+00       5.31047e-04       3.71192e+02
  8.000      2.42764e+02       1.10761e+01      -9.32916e+00       5.25353e-04       3.66030e+02
  8.100      2.41980e+02       1.12042e+01      -9.61611e+00       5.19704e-04       3.60925e+02
  8.200      2.41192e+02       1.12786e+01      -9.94049e+00       5.14105e-04       3.55874e+02
  8.300      2.40397e+02       1.13018e+01      -1.03065e+01       5.08562e-04       3.50878e+02
  8.400      2.39593e+02       1.12779e+01      -1.07150e+01       5.03081e-04       3.45935e+02
  8.500      2.38779e+02       1.12216e+01      -1.11443e+01       4.97662e-04       3.41046e+02
  8.600      2.37955e+02       1.11521e+01      -1.15633e+01       4.92304e-04       3.36209e+02
  8.700      2.37121e+02       1.10886e+01      -1.19407e+01       4.87004e-04       3.31424e+02
  8.800      2.36277e+02       1.10503e+01      -1.22453e+01       4.81764e-04       3.26691e+02
  8.900      2.35423e+02       1.10551e+01      -1.24484e+01       4.76580e-04       3.22008e+02
  9.000      2.34559e+02       1.11037e+01      -1.25531e+01       4.71453e-04       3.17375e+02
  9.100      2.33686e+02       1.11853e+01      -1.25846e+01       4.66382e-04       3.12792e+02
  9.200      2.32803e+02       1.12886e+01      -1.25686e+01       4.61367e-04       3.08259e+02
  9.300      2.31909e+02       1.14024e+01      -1.25306e+01       4.56407e-04       3.03775e+02
  9.400      2.31006e+02       1.15155e+01      -1.24962e+01       4.51503e-04       2.99340e+02
  9.500      2.30093e+02       1.16238e+01      -1.24853e+01       4.46650e-04       2.94953e+02
  9.600      2.29177e+02       1.17408e+01      -1.25027e+01       4.41838e-04       2.90614e+02
  9.700      2.28263e+02       1.18830e+01      -1.25507e+01       4.37056e-04       2.86322e+02
  9.800      2.27358e+02       1.20669e+01      -1.26318e+01       4.32292e-04       2.82078e+02
  9.900      2.26467e+02       1.23089e+01      -1.27485e+01       4.27535e-04       2.77880e+02
 10.000      2.25595e+02       1.26255e+01      -1.29030e+01       4.22773e-04       2.73728e+02
 10.100      2.24746e+02       1.30152e+01      -1.30943e+01       4.18006e-04       2.69622e+02
 10.200      2.23912e+02       1.34476e+01      -1.33151e+01       4.13245e-04       2.65563e+02
 10.300      2.23088e+02       1.38896e+01      -1.35579e+01       4.08503e-04       2.61549e+02
 10.400      2.22266e+02       1.43080e+01      -1.38150e+01       4.03791e-04       2.57580e+02
 10.500      2.21442e+02       1.46697e+01      -1.40787e+01       3.99121e-04       2.53657e+02
 10.600      2.20608e+02       1.49415e+01      -1.43413e+01       3.94506e-04       2.49780e+02
 10.700      2.19760e+02       1.50984e+01      -1.45968e+01       3.89952e-04       2.45947e+02
 10.800      2.18900e+02       1.51425e+01      -1.48444e+01       3.85455e-04       2.42160e+02
 10.900      2.18032e+02       1.50817e+01      -1.50843e+01       3.81008e-04       2.38417e+02
 11.000      2.17160e+02       1.49239e+01      -1.53168e+01       3.76604e-04       2.34718e+02
 11.100      2.16286e+02       1.46771e+01      -1.55422e+01       3.72236e-04       2.31062e+02
 11.200      2.15415e+02       1.43491e+01      -1.57609e+01       3.67898e-04       2.27450e+02
 11.300      2.14551e+02       1.39478e+01      -1.59732e+01       3.63583e-04       2.23881e+02
 11.400      2.13696e+02       1.34868e+01      -1.61801e+01       3.59287e-04       2.20354e+02
 11.500      2.12854e+02       1.29879e+01      -1.63842e+01       3.55003e-04       2.16868e+02
 11.600      2.12027e+02       1.24743e+01      -1.65879e+01       3.50729e-04       2.13425e+02
 11.700      2.11219e+02       1.19686e+01      -1.67937e+01       3.46459e-04       2.10023e+02
 11.800      2.10432e+02       1.14939e+01      -1.70044e+01       3.42189e-04       2.06661e+02
 11.900      2.09668e+02       1.10730e+01      -1.72224e+01       3.37915e-04       2.03340e+02
 12.000      2.08932e+02       1.07289e+01      -1.74502e+01       3.33635e-04       2.00059e+02
 12.100      2.08227e+02       1.04794e+01      -1.76848e+01       3.29340e-04       1.96818e+02
 12.200      2.07569e+02       1.03216e+01      -1.78998e+01       3.25014e-04       1.93618e+02
 12.300      2.06972e+02       1.02470e+01      -1.80624e+01       3.20637e-04       1.90462e+02
 12.400      2.06454e+02       1.02469e+01      -1.81398e+01       3.16189e-04       1.87349e+02
 12.500      2.06031e+02       1.03129e+01      -1.80993e+01       3.11652e-04       1.84283e+02
 12.600      2.05719e+02       1.04364e+01      -1.79082e+01       3.07011e-04       1.81263e+02
 12.700      2.05534e+02       1.06088e+01      -1.75338e+01       3.02249e-04       1.78292e+02
 12.800      2.05494e+02       1.08218e+01      -1.69433e+01       2.97354e-04       1.75370e+02
 12.900      2.05608e+02       1.10670e+01      -1.61133e+01       2.92321e-04       1.72497e+02
 13.000      2.05862e+02       1.13386e+01      -1.50749e+01       2.87183e-04       1.69675e+02
 13.100      2.06229e+02       1.16317e+01      -1.38794e+01       2.81986e-04       1.66901e+02
 13.200      2.06684e+02       1.19410e+01      -1.25781e+01       2.76774e-04       1.64177e+02
 13.300      2.07199e+02       1.22617e+01      -1.12219e+01       2.71585e-04       1.61501e+02
 13.400      2.07749e+02       1.25886e+01      -9.86227e+00       2.66459e-04       1.58873e+02
 13.500      2.08308e+02       1.29168e+01      -8.55027e+00       2.61428e-04       1.56293e+02
 13.600      2.08849e+02       1.32411e+01      -7.33715e+00       2.56524e-04       1.53760e+02
 13.700      2.09347e+02       1.35565e+01      -6.27410e+00       2.51776e-04       1.51273e+02
 13.800      2.09776e+02       1.38580e+01      -5.41091e+00       2.47208e-04       1.48833e+02
 13.900      2.10127e+02       1.41416e+01      -4.76188e+00       2.42823e-04       1.46437e+02
 14.000      2.10407e+02       1.44041e+01      -4.30395e+00       2.38603e-04       1.44085e+02
 14.100      2.10628e+02       1.46425e+01      -4.01231e+00       2.34530e-04       1.41773e+02
 14.200      2.10796e+02       1.48536e+01      -3.86211e+00       2.30587e-04       1.39501e+02
 14.300      2.10922e+02       1.50344e+01      -3.82854e+00       2.26758e-04       1.37267e+02
 14.400      2.11015e+02       1.51819e+01      -3.88675e+00       2.23029e-04       1.35070e+02
 14.500      2.11084e+02       1.52929e+01      -4.01193e+00       2.19386e-04       1.32906e+02
 14.600      2.11137e+02       1.53644e+01      -4.17924e+00       2.15816e-04       1.30777e+02
 14.700      2.11184e+02       1.53933e+01      -4.36386e+00       2.12306e-04       1.28679e+02
 14.800      2.11235e+02       1.53765e+01      -4.54096e+00       2.08846e-04       1.26611e+02
 14.900      2.11297e+02       1.53110e+01      -4.68575e+00       2.05423e-04       1.24573e+02
 15.000      2.11378e+02       1.51961e+01      -4.78187e+00       2.02033e-04       1.22564e+02
 15.100      2.11475e+02       1.50363e+01      -4.83121e+00       1.98678e-04       1.20584e+02
 15.200      2.11587e+02       1.48368e+01      -4.83803e+00       1.95362e-04       1.18635e+02
 15.300      2.11712e+02       1.46028e+01      -4.80662e+00       1.92090e-04       1.16716e+02
 15.400      2.11846e+02       1.43393e+01      -4.74123e+00       1.88863e-04       1.14829e+02
 15.500      2.11989e+02       1.40517e+01      -4.64615e+00       1.85687e-04       1.12974e+02
 15.600      2.12138e+02       1.37450e+01      -4.52564e+00       1.82563e-04       1.11151e+02
 15.700      2.12291e+02       1.34245e+01      -4.38397e+00       1.79495e-04       1.09361e+02
 15.800      2.12445e+02       1.30953e+01      -4.22542e+00       1.76484e-04       1.07605e+02
 15.900      2.12599e+02       1.27625e+01      -4.05425e+00       1.73533e-04       1.05883e+02
 16.000      2.12750e+02       1.24315e+01      -3.87474e+00       1.70645e-04       1.04194e+02
 16.100      2.12896e+02       1.21073e+01      -3.69116e+00       1.67820e-04       1.02540e+02
 16.200      2.13035e+02       1.17950e+01      -3.50778e+00       1.65061e-04       1.00920e+02
 16.300      2.13165e+02       1.15000e+01      -3.32882e+00       1.62370e-04       9.93351e+01
 16.400      2.13285e+02       1.12244e+01      -3.15659e+00       1.59744e-04       9.77838e+01
 16.500      2.13395e+02       1.09675e+01      -2.99108e+00       1.57181e-04       9.62649e+01
 16.600      2.13496e+02       1.07284e+01      -2.83215e+00       1.54678e-04       9.47767e+01
 16.700      2.13589e+02       1.05059e+01      -2.67964e+00       1.52232e-04       9.33180e+01
 16.800      2.13673e+02       1.02991e+01      -2.53339e+00       1.49839e-04       9.18872e+01
 16.900      2.13749e+02       1.01069e+01      -2.39327e+00       1.47496e-04       9.04830e+01
 17.000      2.13819e+02       9.92826e+00      -2.25911e+00       1.45201e-04       8.91041e+01
 17.100      2.13881e+02       9.76221e+00      -2.13076e+00       1.42952e-04       8.77493e+01
 17.200      2.13938e+02       9.60772e+00      -2.00808e+00       1.40745e-04       8.64174e+01
 17.300      2.13988e+02       9.46375e+00      -1.89091e+00       1.38578e-04       8.51074e+01
 17.400      2.14034e+02       9.32928e+00      -1.77909e+00       1.36450e-04       8.38181e+01
 17.500      2.14075e+02       9.20329e+00      -1.67249e+00       1.34357e-04       8.25485e+01
 17.600      2.14112e+02       9.08475e+00      -1.57094e+00       1.32299e-04       8.12976e+01
 17.700      2.14145e+02       8.97264e+00      -1.47430e+00       1.30272e-04       8.00646e+01
 17.800      2.14175e+02       8.86593e+00      -1.38241e+00       1.28275e-04       7.88485e+01
 17.900      2.14203e+02       8.76360e+00      -1.29512e+00       1.26307e-04       7.76485e+01
 18.000      2.14228e+02       8.66462e+00      -1.21228e+00       1.24365e-04       7.64637e+01
 18.100      2.14252e+02       8.56798e+00      -1.13374e+00       1.22448e-04       7.52935e+01
 18.200      2.14274e+02       8.47264e+00      -1.05934e+00       1.20555e-04       7.41371e+01
 18.300      2.14296e+02       8.37759e+00      -9.88945e-01       1.18684e-04       7.29939e+01
 18.400      2.14318e+02       8.28179e+00      -9.22389e-01       1.16833e-04       7.18631e+01
 18.500      2.14340e+02       8.18423e+00      -8.59525e-01       1.15002e-04       7.07441e+01
 18.600      2.14363e+02       8.08389e+00      -8.00200e-01       1.13189e-04       6.96364e+01
 18.700      2.14388e+02       7.98038e+00      -7.44244e-01       1.11394e-04       6.85398e+01
 18.800      2.14414e+02       7.87427e+00      -6.91455e-01       1.09618e-04       6.74550e+01
 18.900      2.14441e+02       7.76622e+00      -6.41624e-01       1.07860e-04       6.63823e+01
 19.000      2.14471e+02       7.65689e+00      -5.94548e-01       1.06123e-04       6.53222e+01
 19.100      2.14502e+02       7.54695e+00      -5.50021e-01       1.04407e-04       6.42752e+01
 19.200      2.14536e+02       7.43706e+00      -5.07837e-01       1.02712e-04       6.32417e+01
 19.300      2.14573e+02       7.32787e+00      -4.67791e-01       1.01039e-04       6.22221e+01
 19.400      2.14612e+02       7.22005e+00      -4.29678e-01       9.93881e-05       6.12168e+01
 19.500      2.14654e+02       7.11426e+00      -3.93292e-01       9.77602e-05       6.02260e+01
 19.600      2.14700e+02       7.01116e+00      -3.58427e-01       9.61557e-05       5.92500e+01
 19.700      2.14748e+02       6.91140e+00      -3.24878e-01       9.45748e-05       5.82891e+01
 19.800      2.14801e+02       6.81567e+00      -2.92440e-01       9.30180e-05       5.73436e+01
 19.900      2.14857e+02       6.72460e+00      -2.60907e-01       9.14856e-05       5.64136e+01
 20.000      2.14917e+02       6.63886e+00      -2.30074e-01       8.99778e-05       5.54992e+01
 20.100      2.14981e+02       6.55912e+00      -1.99734e-01       8.84948e-05       5.46008e+01
 20.200      2.15049e+02       6.48603e+00      -1.69683e-01       8.70368e-05       5.37183e+01
 20.300      2.15122e+02       6.42026e+00      -1.39716e-01       8.56041e-05       5.28520e+01
