# Data Source: NASA MERRA (version 2)
# Model Time = 2011-08-18 18:00:00
# Location = [  39.1026,  -84.5123 ]
# Fields = [ Z(km), T(K), U(m/s), V(m/s), R(g/cm3), P(mbar) ]
# Ground Height = 0.165
  0.000      3.04371e+02       1.98505e+00       8.90112e-01       1.16185e-03       1.01493e+03
  0.100      3.03573e+02       2.01715e+00       9.09029e-01       1.15175e-03       1.00347e+03
  0.200      3.02801e+02       2.05977e+00       9.26336e-01       1.14165e-03       9.92136e+02
  0.300      3.01970e+02       2.07840e+00       9.47317e-01       1.13187e-03       9.80943e+02
  0.400      3.00999e+02       2.03967e+00       9.76715e-01       1.12274e-03       9.69903e+02
  0.500      2.99900e+02       1.94188e+00       1.00438e+00       1.11419e-03       9.59003e+02
  0.600      2.98786e+02       1.81809e+00       1.00384e+00       1.10575e-03       9.48199e+02
  0.700      2.97736e+02       1.69881e+00       9.65747e-01       1.09709e-03       9.37467e+02
  0.800      2.96734e+02       1.60398e+00       9.24730e-01       1.08828e-03       9.26813e+02
  0.900      2.95753e+02       1.54820e+00       9.19894e-01       1.07945e-03       9.16248e+02
  1.000      2.94789e+02       1.52092e+00       9.75892e-01       1.07060e-03       9.05773e+02
  1.100      2.93848e+02       1.50192e+00       1.11053e+00       1.06170e-03       8.95383e+02
  1.200      2.92937e+02       1.49196e+00       1.31506e+00       1.05275e-03       8.85078e+02
  1.300      2.92062e+02       1.51603e+00       1.55014e+00       1.04371e-03       8.74860e+02
  1.400      2.91229e+02       1.60050e+00       1.77470e+00       1.03458e-03       8.64729e+02
  1.500      2.90445e+02       1.77170e+00       1.94771e+00       1.02533e-03       8.54689e+02
  1.600      2.89715e+02       2.05469e+00       2.02937e+00       1.01594e-03       8.44739e+02
  1.700      2.89035e+02       2.44834e+00       2.00504e+00       1.00645e-03       8.34882e+02
  1.800      2.88393e+02       2.92736e+00       1.88335e+00       9.96894e-04       8.25117e+02
  1.900      2.87773e+02       3.46553e+00       1.67382e+00       9.87330e-04       8.15445e+02
  2.000      2.87163e+02       4.03663e+00       1.38595e+00       9.77806e-04       8.05867e+02
  2.100      2.86548e+02       4.61451e+00       1.02948e+00       9.68370e-04       7.96381e+02
  2.200      2.85920e+02       5.17530e+00       6.23499e-01       9.59052e-04       7.86988e+02
  2.300      2.85275e+02       5.69823e+00       1.99859e-01       9.49858e-04       7.77686e+02
  2.400      2.84612e+02       6.16276e+00      -2.08680e-01       9.40792e-04       7.68473e+02
  2.500      2.83928e+02       6.54835e+00      -5.69359e-01       9.31858e-04       7.59347e+02
  2.600      2.83222e+02       6.83446e+00      -8.49419e-01       9.23060e-04       7.50308e+02
  2.700      2.82494e+02       7.00685e+00      -1.02441e+00       9.14395e-04       7.41353e+02
  2.800      2.81752e+02       7.07920e+00      -1.10673e+00       9.05833e-04       7.32481e+02
  2.900      2.81007e+02       7.07293e+00      -1.11897e+00       8.97337e-04       7.23693e+02
  3.000      2.80271e+02       7.00944e+00      -1.08373e+00       8.88870e-04       7.14986e+02
  3.100      2.79554e+02       6.91016e+00      -1.02360e+00       8.80397e-04       7.06361e+02
  3.200      2.78870e+02       6.79643e+00      -9.61140e-01       8.71884e-04       6.97817e+02
  3.300      2.78221e+02       6.68273e+00      -9.13444e-01       8.63316e-04       6.89354e+02
  3.400      2.77604e+02       6.57042e+00      -8.87209e-01       8.54715e-04       6.80971e+02
  3.500      2.77010e+02       6.45934e+00      -8.87965e-01       8.46106e-04       6.72669e+02
  3.600      2.76432e+02       6.34938e+00      -9.21238e-01       8.37512e-04       6.64447e+02
  3.700      2.75863e+02       6.24040e+00      -9.92556e-01       8.28956e-04       6.56307e+02
  3.800      2.75296e+02       6.13229e+00      -1.10742e+00       8.20461e-04       6.48247e+02
  3.900      2.74727e+02       6.02843e+00      -1.26726e+00       8.12041e-04       6.40268e+02
  4.000      2.74155e+02       5.93960e+00      -1.46480e+00       8.03698e-04       6.32369e+02
  4.100      2.73581e+02       5.87750e+00      -1.69169e+00       7.95427e-04       6.24551e+02
  4.200      2.73005e+02       5.85385e+00      -1.93958e+00       7.87228e-04       6.16812e+02
  4.300      2.72429e+02       5.88038e+00      -2.20010e+00       7.79098e-04       6.09154e+02
  4.400      2.71852e+02       5.96879e+00      -2.46490e+00       7.71036e-04       6.01574e+02
  4.500      2.71276e+02       6.12861e+00      -2.72611e+00       7.63040e-04       5.94073e+02
  4.600      2.70698e+02       6.35262e+00      -2.97958e+00       7.55115e-04       5.86651e+02
  4.700      2.70115e+02       6.62592e+00      -3.22291e+00       7.47268e-04       5.79305e+02
  4.800      2.69525e+02       6.93359e+00      -3.45366e+00       7.39506e-04       5.72035e+02
  4.900      2.68925e+02       7.26067e+00      -3.66944e+00       7.31836e-04       5.64841e+02
  5.000      2.68310e+02       7.59223e+00      -3.86781e+00       7.24264e-04       5.57720e+02
  5.100      2.67679e+02       7.91334e+00      -4.04637e+00       7.16798e-04       5.50673e+02
  5.200      2.67030e+02       8.21084e+00      -4.20350e+00       7.09440e-04       5.43697e+02
  5.300      2.66361e+02       8.48115e+00      -4.34186e+00       7.02189e-04       5.36793e+02
  5.400      2.65676e+02       8.72388e+00      -4.46551e+00       6.95039e-04       5.29960e+02
  5.500      2.64975e+02       8.93863e+00      -4.57853e+00       6.87985e-04       5.23197e+02
  5.600      2.64260e+02       9.12500e+00      -4.68500e+00       6.81022e-04       5.16504e+02
  5.700      2.63532e+02       9.28261e+00      -4.78899e+00       6.74144e-04       5.09880e+02
  5.800      2.62793e+02       9.41105e+00      -4.89457e+00       6.67347e-04       5.03324e+02
  5.900      2.62044e+02       9.51014e+00      -5.00581e+00       6.60627e-04       4.96836e+02
  6.000      2.61288e+02       9.58459e+00      -5.12663e+00       6.53976e-04       4.90414e+02
  6.100      2.60527e+02       9.64417e+00      -5.26080e+00       6.47385e-04       4.84058e+02
  6.200      2.59764e+02       9.69889e+00      -5.41208e+00       6.40846e-04       4.77766e+02
  6.300      2.59003e+02       9.75876e+00      -5.58421e+00       6.34349e-04       4.71535e+02
  6.400      2.58245e+02       9.83377e+00      -5.78097e+00       6.27886e-04       4.65366e+02
  6.500      2.57495e+02       9.93393e+00      -6.00612e+00       6.21449e-04       4.59257e+02
  6.600      2.56754e+02       1.00693e+01      -6.26340e+00       6.15031e-04       4.53206e+02
  6.700      2.56026e+02       1.02494e+01      -6.55640e+00       6.08623e-04       4.47213e+02
  6.800      2.55311e+02       1.04759e+01      -6.88388e+00       6.02228e-04       4.41278e+02
  6.900      2.54606e+02       1.07409e+01      -7.23930e+00       5.95857e-04       4.35403e+02
  7.000      2.53908e+02       1.10364e+01      -7.61589e+00       5.89521e-04       4.29593e+02
  7.100      2.53214e+02       1.13543e+01      -8.00685e+00       5.83232e-04       4.23848e+02
  7.200      2.52521e+02       1.16865e+01      -8.40539e+00       5.76999e-04       4.18172e+02
  7.300      2.51827e+02       1.20248e+01      -8.80472e+00       5.70834e-04       4.12567e+02
  7.400      2.51129e+02       1.23611e+01      -9.19805e+00       5.64746e-04       4.07035e+02
  7.500      2.50423e+02       1.26874e+01      -9.57860e+00       5.58744e-04       4.01577e+02
  7.600      2.49707e+02       1.29961e+01      -9.94022e+00       5.52837e-04       3.96196e+02
  7.700      2.48981e+02       1.32865e+01      -1.02834e+01       5.47016e-04       3.90884e+02
  7.800      2.48244e+02       1.35616e+01      -1.06122e+01       5.41267e-04       3.85631e+02
  7.900      2.47498e+02       1.38244e+01      -1.09311e+01       5.35574e-04       3.80429e+02
  8.000      2.46744e+02       1.40779e+01      -1.12442e+01       5.29924e-04       3.75268e+02
  8.100      2.45982e+02       1.43252e+01      -1.15559e+01       5.24302e-04       3.70140e+02
  8.200      2.45213e+02       1.45694e+01      -1.18703e+01       5.18695e-04       3.65037e+02
  8.300      2.44437e+02       1.48136e+01      -1.21918e+01       5.13092e-04       3.59951e+02
  8.400      2.43656e+02       1.50607e+01      -1.25246e+01       5.07478e-04       3.54876e+02
  8.500      2.42869e+02       1.53138e+01      -1.28731e+01       5.01844e-04       3.49803e+02
  8.600      2.42079e+02       1.55750e+01      -1.32396e+01       4.96187e-04       3.44734e+02
  8.700      2.41286e+02       1.58427e+01      -1.36201e+01       4.90533e-04       3.39690e+02
  8.800      2.40495e+02       1.61144e+01      -1.40093e+01       4.84913e-04       3.34696e+02
  8.900      2.39706e+02       1.63878e+01      -1.44017e+01       4.79358e-04       3.29777e+02
  9.000      2.38922e+02       1.66605e+01      -1.47919e+01       4.73897e-04       3.24954e+02
  9.100      2.38146e+02       1.69300e+01      -1.51745e+01       4.68558e-04       3.20249e+02
  9.200      2.37380e+02       1.71939e+01      -1.55440e+01       4.63365e-04       3.15682e+02
  9.300      2.36627e+02       1.74499e+01      -1.58951e+01       4.58345e-04       3.11271e+02
  9.400      2.35888e+02       1.76955e+01      -1.62224e+01       4.53520e-04       3.07033e+02
  9.500      2.35167e+02       1.79284e+01      -1.65203e+01       4.48914e-04       3.02986e+02
  9.600      2.34465e+02       1.81461e+01      -1.67835e+01       4.44548e-04       2.99144e+02
  9.700      2.33785e+02       1.83477e+01      -1.70096e+01       4.40428e-04       2.95511e+02
  9.800      2.33125e+02       1.85347e+01      -1.72020e+01       4.36527e-04       2.92066e+02
  9.900      2.32484e+02       1.87092e+01      -1.73649e+01       4.32816e-04       2.88787e+02
 10.000      2.31861e+02       1.88733e+01      -1.75027e+01       4.29268e-04       2.85653e+02
 10.100      2.31256e+02       1.90291e+01      -1.76196e+01       4.25855e-04       2.82643e+02
 10.200      2.30668e+02       1.91785e+01      -1.77199e+01       4.22552e-04       2.79737e+02
 10.300      2.30095e+02       1.93237e+01      -1.78077e+01       4.19334e-04       2.76917e+02
 10.400      2.29537e+02       1.94666e+01      -1.78875e+01       4.16177e-04       2.74165e+02
 10.500      2.28992e+02       1.96093e+01      -1.79634e+01       4.13056e-04       2.71463e+02
 10.600      2.28460e+02       1.97539e+01      -1.80396e+01       4.09949e-04       2.68795e+02
 10.700      2.27939e+02       1.99024e+01      -1.81205e+01       4.06834e-04       2.66145e+02
 10.800      2.27430e+02       2.00568e+01      -1.82103e+01       4.03690e-04       2.63498e+02
 10.900      2.26930e+02       2.02192e+01      -1.83133e+01       4.00495e-04       2.60838e+02
 11.000      2.26439e+02       2.03917e+01      -1.84337e+01       3.97230e-04       2.58151e+02
 11.100      2.25956e+02       2.05762e+01      -1.85758e+01       3.93875e-04       2.55425e+02
 11.200      2.25479e+02       2.07749e+01      -1.87438e+01       3.90412e-04       2.52645e+02
 11.300      2.25009e+02       2.09897e+01      -1.89419e+01       3.86823e-04       2.49801e+02
 11.400      2.24544e+02       2.12215e+01      -1.91726e+01       3.83096e-04       2.46882e+02
 11.500      2.24084e+02       2.14665e+01      -1.94312e+01       3.79232e-04       2.43891e+02
 11.600      2.23628e+02       2.17203e+01      -1.97122e+01       3.75235e-04       2.40831e+02
 11.700      2.23178e+02       2.19785e+01      -2.00099e+01       3.71111e-04       2.37705e+02
 11.800      2.22733e+02       2.22365e+01      -2.03184e+01       3.66864e-04       2.34515e+02
 11.900      2.22292e+02       2.24900e+01      -2.06322e+01       3.62499e-04       2.31267e+02
 12.000      2.21857e+02       2.27343e+01      -2.09455e+01       3.58021e-04       2.27962e+02
 12.100      2.21426e+02       2.29650e+01      -2.12527e+01       3.53435e-04       2.24605e+02
 12.200      2.20999e+02       2.31777e+01      -2.15479e+01       3.48747e-04       2.21199e+02
 12.300      2.20578e+02       2.33679e+01      -2.18255e+01       3.43961e-04       2.17748e+02
 12.400      2.20161e+02       2.35310e+01      -2.20799e+01       3.39084e-04       2.14254e+02
 12.500      2.19749e+02       2.36627e+01      -2.23052e+01       3.34120e-04       2.10722e+02
 12.600      2.19341e+02       2.37584e+01      -2.24958e+01       3.29075e-04       2.07155e+02
 12.700      2.18938e+02       2.38137e+01      -2.26460e+01       3.23954e-04       2.03557e+02
 12.800      2.18539e+02       2.38240e+01      -2.27500e+01       3.18764e-04       1.99931e+02
 12.900      2.18145e+02       2.37864e+01      -2.28036e+01       3.13513e-04       1.96283e+02
 13.000      2.17756e+02       2.37027e+01      -2.28079e+01       3.08218e-04       1.92624e+02
 13.100      2.17374e+02       2.35762e+01      -2.27653e+01       3.02898e-04       1.88967e+02
 13.200      2.16998e+02       2.34102e+01      -2.26781e+01       2.97573e-04       1.85324e+02
 13.300      2.16629e+02       2.32078e+01      -2.25487e+01       2.92259e-04       1.81705e+02
 13.400      2.16270e+02       2.29723e+01      -2.23795e+01       2.86972e-04       1.78122e+02
 13.500      2.15919e+02       2.27069e+01      -2.21728e+01       2.81727e-04       1.74583e+02
 13.600      2.15578e+02       2.24149e+01      -2.19311e+01       2.76539e-04       1.71097e+02
 13.700      2.15249e+02       2.20995e+01      -2.16567e+01       2.71420e-04       1.67673e+02
 13.800      2.14930e+02       2.17639e+01      -2.13519e+01       2.66382e-04       1.64318e+02
 13.900      2.14624e+02       2.14113e+01      -2.10192e+01       2.61438e-04       1.61038e+02
 14.000      2.14332e+02       2.10450e+01      -2.06610e+01       2.56596e-04       1.57840e+02
 14.100      2.14053e+02       2.06682e+01      -2.02795e+01       2.51866e-04       1.54729e+02
 14.200      2.13789e+02       2.02840e+01      -1.98772e+01       2.47257e-04       1.51711e+02
 14.300      2.13541e+02       1.98959e+01      -1.94564e+01       2.42777e-04       1.48789e+02
 14.400      2.13308e+02       1.95056e+01      -1.90192e+01       2.38427e-04       1.45963e+02
 14.500      2.13091e+02       1.91136e+01      -1.85668e+01       2.34200e-04       1.43230e+02
 14.600      2.12888e+02       1.87203e+01      -1.81008e+01       2.30092e-04       1.40584e+02
 14.700      2.12700e+02       1.83260e+01      -1.76226e+01       2.26097e-04       1.38021e+02
 14.800      2.12527e+02       1.79311e+01      -1.71336e+01       2.22210e-04       1.35537e+02
 14.900      2.12367e+02       1.75360e+01      -1.66352e+01       2.18425e-04       1.33128e+02
 15.000      2.12220e+02       1.71410e+01      -1.61288e+01       2.14738e-04       1.30791e+02
 15.100      2.12085e+02       1.67464e+01      -1.56158e+01       2.11144e-04       1.28520e+02
 15.200      2.11964e+02       1.63527e+01      -1.50977e+01       2.07639e-04       1.26314e+02
 15.300      2.11854e+02       1.59601e+01      -1.45759e+01       2.04219e-04       1.24169e+02
 15.400      2.11755e+02       1.55690e+01      -1.40518e+01       2.00880e-04       1.22082e+02
 15.500      2.11668e+02       1.51798e+01      -1.35267e+01       1.97617e-04       1.20050e+02
 15.600      2.11591e+02       1.47928e+01      -1.30023e+01       1.94428e-04       1.18070e+02
 15.700      2.11525e+02       1.44084e+01      -1.24797e+01       1.91310e-04       1.16139e+02
 15.800      2.11468e+02       1.40270e+01      -1.19606e+01       1.88257e-04       1.14256e+02
 15.900      2.11420e+02       1.36488e+01      -1.14462e+01       1.85269e-04       1.12416e+02
 16.000      2.11381e+02       1.32743e+01      -1.09380e+01       1.82340e-04       1.10619e+02
 16.100      2.11351e+02       1.29037e+01      -1.04374e+01       1.79470e-04       1.08862e+02
 16.200      2.11329e+02       1.25376e+01      -9.94588e+00       1.76655e-04       1.07143e+02
 16.300      2.11314e+02       1.21761e+01      -9.46481e+00       1.73892e-04       1.05460e+02
 16.400      2.11306e+02       1.18197e+01      -8.99560e+00       1.71178e-04       1.03811e+02
 16.500      2.11305e+02       1.14687e+01      -8.53967e+00       1.68513e-04       1.02194e+02
 16.600      2.11310e+02       1.11235e+01      -8.09845e+00       1.65892e-04       1.00607e+02
 16.700      2.11322e+02       1.07844e+01      -7.67330e+00       1.63315e-04       9.90494e+01
 16.800      2.11338e+02       1.04511e+01      -7.26477e+00       1.60779e-04       9.75191e+01
 16.900      2.11361e+02       1.01229e+01      -6.87278e+00       1.58283e-04       9.60153e+01
 17.000      2.11389e+02       9.79905e+00      -6.49727e+00       1.55825e-04       9.45372e+01
 17.100      2.11424e+02       9.47894e+00      -6.13815e+00       1.53405e-04       9.30838e+01
 17.200      2.11464e+02       9.16179e+00      -5.79536e+00       1.51020e-04       9.16544e+01
 17.300      2.11510e+02       8.84692e+00      -5.46882e+00       1.48670e-04       9.02480e+01
 17.400      2.11562e+02       8.53358e+00      -5.15845e+00       1.46354e-04       8.88639e+01
 17.500      2.11621e+02       8.22108e+00      -4.86417e+00       1.44070e-04       8.75014e+01
 17.600      2.11686e+02       7.90870e+00      -4.58591e+00       1.41818e-04       8.61596e+01
 17.700      2.11757e+02       7.59573e+00      -4.32360e+00       1.39595e-04       8.48379e+01
 17.800      2.11834e+02       7.28146e+00      -4.07716e+00       1.37403e-04       8.35357e+01
 17.900      2.11918e+02       6.96516e+00      -3.84651e+00       1.35238e-04       8.22523e+01
 18.000      2.12008e+02       6.64614e+00      -3.63157e+00       1.33101e-04       8.09870e+01
 18.100      2.12105e+02       6.32367e+00      -3.43228e+00       1.30991e-04       7.97393e+01
 18.200      2.12208e+02       5.99704e+00      -3.24855e+00       1.28906e-04       7.85087e+01
 18.300      2.12318e+02       5.66555e+00      -3.08031e+00       1.26847e-04       7.72945e+01
 18.400      2.12435e+02       5.32848e+00      -2.92749e+00       1.24812e-04       7.60963e+01
 18.500      2.12559e+02       4.98510e+00      -2.79000e+00       1.22800e-04       7.49135e+01
 18.600      2.12689e+02       4.63472e+00      -2.66777e+00       1.20812e-04       7.37458e+01
 18.700      2.12827e+02       4.27661e+00      -2.56073e+00       1.18846e-04       7.25925e+01
 18.800      2.12971e+02       3.91008e+00      -2.46881e+00       1.16902e-04       7.14534e+01
 18.900      2.13123e+02       3.53439e+00      -2.39191e+00       1.14978e-04       7.03280e+01
 19.000      2.13281e+02       3.14896e+00      -2.32990e+00       1.13076e-04       6.92159e+01
 19.100      2.13447e+02       2.75435e+00      -2.28178e+00       1.11195e-04       6.81172e+01
 19.200      2.13618e+02       2.35183e+00      -2.24611e+00       1.09336e-04       6.70323e+01
 19.300      2.13794e+02       1.94265e+00      -2.22143e+00       1.07501e-04       6.59614e+01
 19.400      2.13975e+02       1.52807e+00      -2.20628e+00       1.05690e-04       6.49049e+01
 19.500      2.14160e+02       1.10935e+00      -2.19919e+00       1.03903e-04       6.38629e+01
 19.600      2.14347e+02       6.87764e-01      -2.19872e+00       1.02143e-04       6.28358e+01
 19.700      2.14537e+02       2.64559e-01      -2.20341e+00       1.00408e-04       6.18236e+01
 19.800      2.14729e+02      -1.58991e-01      -2.21178e+00       9.87012e-05       6.08267e+01
 19.900      2.14921e+02      -5.81640e-01      -2.22239e+00       9.70215e-05       5.98450e+01
 20.000      2.15113e+02      -1.00212e+00      -2.23378e+00       9.53698e-05       5.88789e+01
 20.100      2.15305e+02      -1.41917e+00      -2.24448e+00       9.37467e-05       5.79284e+01
 20.200      2.15495e+02      -1.83153e+00      -2.25304e+00       9.21524e-05       5.69935e+01
 20.300      2.15683e+02      -2.23793e+00      -2.25800e+00       9.05872e-05       5.60744e+01
