# Data Source: NASA GEOS5 Near-Real-Time
# Model Time = 2010-05-29 18:00:00
# Location = [  39.7393, -104.9900 ]
# Fields = [ Z(km), T(K), U(m/s), V(m/s), R(g/cm3), P(mbar) ]
# Ground Height = 1.589
  0.000      3.08567e+02      -3.03733e+00      -1.98585e-01       1.13315e-03       1.00350e+03
  0.100      3.07931e+02      -3.03832e+00      -2.08392e-01       1.12225e-03       9.91806e+02
  0.200      3.07282e+02      -3.04182e+00      -2.19064e-01       1.11152e-03       9.80245e+02
  0.300      3.06601e+02      -3.05104e+00      -2.32134e-01       1.10100e-03       9.68819e+02
  0.400      3.05905e+02      -3.06220e+00      -2.54886e-01       1.09065e-03       9.57529e+02
  0.500      3.05234e+02      -3.06534e+00      -2.99388e-01       1.08032e-03       9.46382e+02
  0.600      3.04601e+02      -3.05588e+00      -3.54790e-01       1.06998e-03       9.35379e+02
  0.700      3.03965e+02      -3.03804e+00      -3.73727e-01       1.05976e-03       9.24514e+02
  0.800      3.03296e+02      -3.01552e+00      -3.27261e-01       1.04977e-03       9.13781e+02
  0.900      3.02605e+02      -2.98749e+00      -2.62150e-01       1.03996e-03       9.03180e+02
  1.000      3.01916e+02      -2.95275e+00      -2.36686e-01       1.03025e-03       8.92711e+02
  1.100      3.01248e+02      -2.91640e+00      -2.57195e-01       1.02057e-03       8.82370e+02
  1.200      3.00620e+02      -2.88732e+00      -2.99216e-01       1.01086e-03       8.72153e+02
  1.300      3.00020e+02      -2.87652e+00      -3.44854e-01       1.00116e-03       8.62059e+02
  1.400      2.99380e+02      -2.89875e+00      -3.88690e-01       9.91706e-04       8.52095e+02
  1.500      2.98635e+02      -2.96339e+00      -4.21988e-01       9.82710e-04       8.42263e+02
  1.600      2.97790e+02      -3.03553e+00      -4.00577e-01       9.74138e-04       8.32553e+02
  1.700      2.96882e+02      -3.05984e+00      -2.64022e-01       9.65840e-04       8.22946e+02
  1.800      2.95955e+02      -2.99628e+00       1.92096e-02       9.57665e-04       8.13431e+02
  1.900      2.95059e+02      -2.83791e+00       4.18563e-01       9.49450e-04       8.04011e+02
  2.000      2.94244e+02      -2.58287e+00       8.96295e-01       9.41045e-04       7.94693e+02
  2.100      2.93516e+02      -2.24322e+00       1.42860e+00       9.32434e-04       7.85475e+02
  2.200      2.92846e+02      -1.84258e+00       2.00324e+00       9.23712e-04       7.76350e+02
  2.300      2.92203e+02      -1.40248e+00       2.60440e+00       9.14970e-04       7.67314e+02
  2.400      2.91573e+02      -9.29268e-01       3.19149e+00       9.06255e-04       7.58367e+02
  2.500      2.90946e+02      -4.23381e-01       3.71430e+00       8.97601e-04       7.49511e+02
  2.600      2.90311e+02       1.13986e-01       4.14217e+00       8.89046e-04       7.40748e+02
  2.700      2.89649e+02       6.79034e-01       4.51068e+00       8.80647e-04       7.32076e+02
  2.800      2.88939e+02       1.26740e+00       4.86935e+00       8.72461e-04       7.23494e+02
  2.900      2.88168e+02       1.87377e+00       5.24923e+00       8.64523e-04       7.14997e+02
  3.000      2.87341e+02       2.49049e+00       5.63719e+00       8.56808e-04       7.06582e+02
  3.100      2.86464e+02       3.10956e+00       6.01368e+00       8.49284e-04       6.98241e+02
  3.200      2.85551e+02       3.71826e+00       6.36195e+00       8.41911e-04       6.89972e+02
  3.300      2.84620e+02       4.29371e+00       6.67131e+00       8.34628e-04       6.81774e+02
  3.400      2.83693e+02       4.81174e+00       6.93191e+00       8.27374e-04       6.73647e+02
  3.500      2.82782e+02       5.25657e+00       7.14085e+00       8.20111e-04       6.65590e+02
  3.600      2.81883e+02       5.63303e+00       7.31235e+00       8.12858e-04       6.57605e+02
  3.700      2.80986e+02       5.94901e+00       7.46321e+00       8.05641e-04       6.49692e+02
  3.800      2.80085e+02       6.21308e+00       7.61104e+00       7.98477e-04       6.41850e+02
  3.900      2.79186e+02       6.43611e+00       7.77632e+00       7.91350e-04       6.34080e+02
  4.000      2.78296e+02       6.62948e+00       7.98019e+00       7.84239e-04       6.26380e+02
  4.100      2.77423e+02       6.80323e+00       8.23997e+00       7.77124e-04       6.18749e+02
  4.200      2.76564e+02       6.95812e+00       8.54649e+00       7.70010e-04       6.11187e+02
  4.300      2.75715e+02       7.09097e+00       8.87938e+00       7.62910e-04       6.03693e+02
  4.400      2.74872e+02       7.19865e+00       9.21845e+00       7.55836e-04       5.96267e+02
  4.500      2.74032e+02       7.27987e+00       9.54894e+00       7.48799e-04       5.88908e+02
  4.600      2.73191e+02       7.33516e+00       9.86142e+00       7.41806e-04       5.81619e+02
  4.700      2.72349e+02       7.36511e+00       1.01467e+01       7.34866e-04       5.74401e+02
  4.800      2.71504e+02       7.37019e+00       1.03999e+01       7.27982e-04       5.67255e+02
  4.900      2.70656e+02       7.35044e+00       1.06299e+01       7.21152e-04       5.60178e+02
  5.000      2.69807e+02       7.30586e+00       1.08483e+01       7.14368e-04       5.53168e+02
  5.100      2.68958e+02       7.23671e+00       1.10669e+01       7.07626e-04       5.46222e+02
  5.200      2.68111e+02       7.14940e+00       1.13040e+01       7.00916e-04       5.39341e+02
  5.300      2.67272e+02       7.05569e+00       1.15841e+01       6.94228e-04       5.32523e+02
  5.400      2.66445e+02       6.96757e+00       1.19315e+01       6.87553e-04       5.25771e+02
  5.500      2.65635e+02       6.89771e+00       1.23654e+01       6.80880e-04       5.19084e+02
  5.600      2.64845e+02       6.86266e+00       1.28745e+01       6.74199e-04       5.12462e+02
  5.700      2.64080e+02       6.88036e+00       1.34370e+01       6.67501e-04       5.05906e+02
  5.800      2.63345e+02       6.96875e+00       1.40310e+01       6.60775e-04       4.99415e+02
  5.900      2.62643e+02       7.13660e+00       1.46303e+01       6.54016e-04       4.92989e+02
  6.000      2.61973e+02       7.36468e+00       1.51954e+01       6.47230e-04       4.86628e+02
  6.100      2.61333e+02       7.62845e+00       1.56845e+01       6.40424e-04       4.80334e+02
  6.200      2.60721e+02       7.90338e+00       1.60556e+01       6.33606e-04       4.74108e+02
  6.300      2.60133e+02       8.17104e+00       1.62838e+01       6.26789e-04       4.67948e+02
  6.400      2.59553e+02       8.42897e+00       1.63884e+01       6.20010e-04       4.61856e+02
  6.500      2.58965e+02       8.67726e+00       1.63960e+01       6.13306e-04       4.55828e+02
  6.600      2.58355e+02       8.91603e+00       1.63333e+01       6.06714e-04       4.49866e+02
  6.700      2.57708e+02       9.14534e+00       1.62269e+01       6.00261e-04       4.43967e+02
  6.800      2.57026e+02       9.36507e+00       1.61044e+01       5.93942e-04       4.38130e+02
  6.900      2.56311e+02       9.57507e+00       1.59934e+01       5.87748e-04       4.32354e+02
  7.000      2.55566e+02       9.77518e+00       1.59219e+01       5.81668e-04       4.26639e+02
  7.100      2.54795e+02       9.96458e+00       1.59151e+01       5.75692e-04       4.20982e+02
  7.200      2.54003e+02       1.01359e+01       1.59750e+01       5.69807e-04       4.15382e+02
  7.300      2.53195e+02       1.02780e+01       1.60906e+01       5.63997e-04       4.09840e+02
  7.400      2.52379e+02       1.03797e+01       1.62505e+01       5.58248e-04       4.04355e+02
  7.500      2.51560e+02       1.04298e+01       1.64432e+01       5.52545e-04       3.98925e+02
  7.600      2.50743e+02       1.04209e+01       1.66610e+01       5.46877e-04       3.93550e+02
  7.700      2.49929e+02       1.03540e+01       1.69046e+01       5.41242e-04       3.88231e+02
  7.800      2.49121e+02       1.02312e+01       1.71754e+01       5.35637e-04       3.82968e+02
  7.900      2.48318e+02       1.00544e+01       1.74750e+01       5.30059e-04       3.77759e+02
  8.000      2.47523e+02       9.82621e+00       1.78049e+01       5.24508e-04       3.72606e+02
  8.100      2.46735e+02       9.56176e+00       1.81583e+01       5.18984e-04       3.67507e+02
  8.200      2.45951e+02       9.28989e+00       1.85199e+01       5.13492e-04       3.62463e+02
  8.300      2.45170e+02       9.04012e+00       1.88741e+01       5.08035e-04       3.57473e+02
  8.400      2.44390e+02       8.84200e+00       1.92051e+01       5.02618e-04       3.52535e+02
  8.500      2.43607e+02       8.72416e+00       1.94978e+01       4.97245e-04       3.47650e+02
  8.600      2.42822e+02       8.69297e+00       1.97550e+01       4.91918e-04       3.42817e+02
  8.700      2.42033e+02       8.73145e+00       1.99979e+01       4.86638e-04       3.38035e+02
  8.800      2.41240e+02       8.82150e+00       2.02486e+01       4.81404e-04       3.33305e+02
  8.900      2.40444e+02       8.94503e+00       2.05294e+01       4.76218e-04       3.28625e+02
  9.000      2.39643e+02       9.08401e+00       2.08622e+01       4.71079e-04       3.23997e+02
  9.100      2.38838e+02       9.22546e+00       2.12565e+01       4.65987e-04       3.19418e+02
  9.200      2.38030e+02       9.36724e+00       2.16949e+01       4.60941e-04       3.14890e+02
  9.300      2.37218e+02       9.50861e+00       2.21564e+01       4.55940e-04       3.10411e+02
  9.400      2.36403e+02       9.64881e+00       2.26201e+01       4.50982e-04       3.05981e+02
  9.500      2.35587e+02       9.78709e+00       2.30653e+01       4.46065e-04       3.01600e+02
  9.600      2.34768e+02       9.92281e+00       2.34717e+01       4.41189e-04       2.97267e+02
  9.700      2.33950e+02       1.00571e+01       2.38301e+01       4.36351e-04       2.92981e+02
  9.800      2.33133e+02       1.01922e+01       2.41387e+01       4.31546e-04       2.88743e+02
  9.900      2.32319e+02       1.03306e+01       2.43960e+01       4.26772e-04       2.84552e+02
 10.000      2.31510e+02       1.04745e+01       2.46003e+01       4.22026e-04       2.80408e+02
 10.100      2.30708e+02       1.06263e+01       2.47500e+01       4.17303e-04       2.76310e+02
 10.200      2.29915e+02       1.07878e+01       2.48446e+01       4.12602e-04       2.72258e+02
 10.300      2.29127e+02       1.09551e+01       2.48945e+01       4.07928e-04       2.68251e+02
 10.400      2.28337e+02       1.11204e+01       2.49172e+01       4.03293e-04       2.64289e+02
 10.500      2.27540e+02       1.12760e+01       2.49303e+01       3.98706e-04       2.60372e+02
 10.600      2.26730e+02       1.14144e+01       2.49513e+01       3.94179e-04       2.56498e+02
 10.700      2.25900e+02       1.15277e+01       2.49977e+01       3.89721e-04       2.52668e+02
 10.800      2.25043e+02       1.16082e+01       2.50871e+01       3.85341e-04       2.48881e+02
 10.900      2.24162e+02       1.16511e+01       2.52278e+01       3.81036e-04       2.45137e+02
 11.000      2.23268e+02       1.16562e+01       2.54126e+01       3.76785e-04       2.41436e+02
 11.100      2.22377e+02       1.16238e+01       2.56327e+01       3.72562e-04       2.37777e+02
 11.200      2.21502e+02       1.15540e+01       2.58795e+01       3.68344e-04       2.34160e+02
 11.300      2.20657e+02       1.14471e+01       2.61443e+01       3.64109e-04       2.30585e+02
 11.400      2.19858e+02       1.13034e+01       2.64183e+01       3.59834e-04       2.27052e+02
 11.500      2.19117e+02       1.11235e+01       2.66924e+01       3.55498e-04       2.23560e+02
 11.600      2.18442e+02       1.09180e+01       2.69447e+01       3.51094e-04       2.20111e+02
 11.700      2.17831e+02       1.07103e+01       2.71368e+01       3.46630e-04       2.16704e+02
 11.800      2.17281e+02       1.05246e+01       2.72294e+01       3.42114e-04       2.13342e+02
 11.900      2.16791e+02       1.03851e+01       2.71831e+01       3.37555e-04       2.10024e+02
 12.000      2.16357e+02       1.03161e+01       2.69587e+01       3.32962e-04       2.06751e+02
 12.100      2.15977e+02       1.03416e+01       2.65168e+01       3.28342e-04       2.03524e+02
 12.200      2.15649e+02       1.04859e+01       2.58181e+01       3.23704e-04       2.00344e+02
 12.300      2.15368e+02       1.07663e+01       2.48364e+01       3.19057e-04       1.97211e+02
 12.400      2.15123e+02       1.11614e+01       2.36195e+01       3.14420e-04       1.94124e+02
 12.500      2.14900e+02       1.16366e+01       2.22402e+01       3.09813e-04       1.91082e+02
 12.600      2.14684e+02       1.21574e+01       2.07716e+01       3.05258e-04       1.88083e+02
 12.700      2.14460e+02       1.26890e+01       1.92869e+01       3.00773e-04       1.85126e+02
 12.800      2.14215e+02       1.31968e+01       1.78590e+01       2.96376e-04       1.82211e+02
 12.900      2.13933e+02       1.36462e+01       1.65609e+01       2.92084e-04       1.79336e+02
 13.000      2.13600e+02       1.40026e+01       1.54658e+01       2.87912e-04       1.76499e+02
 13.100      2.13202e+02       1.42324e+01       1.46446e+01       2.83876e-04       1.73701e+02
 13.200      2.12741e+02       1.43305e+01       1.41102e+01       2.79970e-04       1.70940e+02
 13.300      2.12237e+02       1.43235e+01       1.38124e+01       2.76165e-04       1.68218e+02
 13.400      2.11710e+02       1.42393e+01       1.36977e+01       2.72434e-04       1.65534e+02
 13.500      2.11181e+02       1.41059e+01       1.37127e+01       2.68753e-04       1.62889e+02
 13.600      2.10670e+02       1.39512e+01       1.38038e+01       2.65095e-04       1.60283e+02
 13.700      2.10197e+02       1.38033e+01       1.39175e+01       2.61438e-04       1.57716e+02
 13.800      2.09783e+02       1.36900e+01       1.40004e+01       2.57758e-04       1.55190e+02
 13.900      2.09448e+02       1.36395e+01       1.39989e+01       2.54034e-04       1.52704e+02
 14.000      2.09213e+02       1.36796e+01       1.38597e+01       2.50245e-04       1.50257e+02
 14.100      2.09093e+02       1.38320e+01       1.35388e+01       2.46379e-04       1.47851e+02
 14.200      2.09082e+02       1.40841e+01       1.30463e+01       2.42447e-04       1.45485e+02
 14.300      2.09164e+02       1.44113e+01       1.24102e+01       2.38473e-04       1.43156e+02
 14.400      2.09324e+02       1.47888e+01       1.16588e+01       2.34478e-04       1.40865e+02
 14.500      2.09546e+02       1.51922e+01       1.08203e+01       2.30480e-04       1.38610e+02
 14.600      2.09815e+02       1.55969e+01       9.92304e+00       2.26499e-04       1.36390e+02
 14.700      2.10115e+02       1.59782e+01       8.99514e+00       2.22552e-04       1.34205e+02
 14.800      2.10431e+02       1.63116e+01       8.06485e+00       2.18655e-04       1.32054e+02
 14.900      2.10747e+02       1.65725e+01       7.16041e+00       2.14824e-04       1.29935e+02
 15.000      2.11049e+02       1.67362e+01       6.31003e+00       2.11071e-04       1.27848e+02
 15.100      2.11320e+02       1.67783e+01       5.54196e+00       2.07411e-04       1.25793e+02
 15.200      2.11547e+02       1.66755e+01       4.88295e+00       2.03853e-04       1.23767e+02
 15.300      2.11725e+02       1.64268e+01       4.33869e+00       2.00399e-04       1.21772e+02
 15.400      2.11859e+02       1.60474e+01       3.89912e+00       1.97042e-04       1.19809e+02
 15.500      2.11953e+02       1.55530e+01       3.55375e+00       1.93777e-04       1.17876e+02
 15.600      2.12013e+02       1.49593e+01       3.29215e+00       1.90599e-04       1.15975e+02
 15.700      2.12041e+02       1.42818e+01       3.10384e+00       1.87502e-04       1.14106e+02
 15.800      2.12045e+02       1.35363e+01       2.97836e+00       1.84482e-04       1.12270e+02
 15.900      2.12027e+02       1.27383e+01       2.90526e+00       1.81533e-04       1.10466e+02
 16.000      2.11993e+02       1.19036e+01       2.87408e+00       1.78652e-04       1.08695e+02
 16.100      2.11947e+02       1.10478e+01       2.87434e+00       1.75833e-04       1.06957e+02
 16.200      2.11893e+02       1.01865e+01       2.89560e+00       1.73074e-04       1.05252e+02
 16.300      2.11837e+02       9.33552e+00       2.92739e+00       1.70370e-04       1.03580e+02
 16.400      2.11783e+02       8.51034e+00       2.95925e+00       1.67717e-04       1.01942e+02
 16.500      2.11736e+02       7.72668e+00       2.98072e+00       1.65113e-04       1.00336e+02
 16.600      2.11700e+02       6.99867e+00       2.98233e+00       1.62553e-04       9.87640e+01
 16.700      2.11675e+02       6.32881e+00       2.96221e+00       1.60037e-04       9.72239e+01
 16.800      2.11662e+02       5.71418e+00       2.92201e+00       1.57562e-04       9.57144e+01
 16.900      2.11660e+02       5.15182e+00       2.86341e+00       1.55127e-04       9.42341e+01
 17.000      2.11668e+02       4.63879e+00       2.78809e+00       1.52730e-04       9.27816e+01
 17.100      2.11685e+02       4.17215e+00       2.69771e+00       1.50371e-04       9.13558e+01
 17.200      2.11712e+02       3.74896e+00       2.59396e+00       1.48047e-04       8.99553e+01
 17.300      2.11748e+02       3.36627e+00       2.47851e+00       1.45757e-04       8.85791e+01
 17.400      2.11792e+02       3.02112e+00       2.35302e+00       1.43501e-04       8.72260e+01
 17.500      2.11843e+02       2.71058e+00       2.21918e+00       1.41277e-04       8.58950e+01
 17.600      2.11902e+02       2.43169e+00       2.07866e+00       1.39084e-04       8.45850e+01
 17.700      2.11967e+02       2.18152e+00       1.93314e+00       1.36921e-04       8.32950e+01
 17.800      2.12038e+02       1.95712e+00       1.78429e+00       1.34786e-04       8.20242e+01
 17.900      2.12115e+02       1.75554e+00       1.63378e+00       1.32680e-04       8.07716e+01
 18.000      2.12197e+02       1.57383e+00       1.48329e+00       1.30601e-04       7.95365e+01
 18.100      2.12283e+02       1.40906e+00       1.33449e+00       1.28548e-04       7.83180e+01
 18.200      2.12373e+02       1.25827e+00       1.18906e+00       1.26520e-04       7.71153e+01
 18.300      2.12467e+02       1.11852e+00       1.04867e+00       1.24517e-04       7.59278e+01
 18.400      2.12564e+02       9.86859e-01       9.15002e-01       1.22537e-04       7.47547e+01
 18.500      2.12663e+02       8.60347e-01       7.89721e-01       1.20580e-04       7.35953e+01
 18.600      2.12764e+02       7.36036e-01       6.74506e-01       1.18646e-04       7.24491e+01
 18.700      2.12866e+02       6.10981e-01       5.71031e-01       1.16733e-04       7.13154e+01
 18.800      2.12970e+02       4.82237e-01       4.80972e-01       1.14842e-04       7.01938e+01
 18.900      2.13073e+02       3.47161e-01       4.05745e-01       1.12971e-04       6.90837e+01
 19.000      2.13177e+02       2.05197e-01       3.45032e-01       1.11121e-04       6.79855e+01
 19.100      2.13281e+02       5.66512e-02       2.97789e-01       1.09292e-04       6.68996e+01
 19.200      2.13385e+02      -9.81643e-02       2.62970e-01       1.07487e-04       6.58266e+01
 19.300      2.13489e+02      -2.58936e-01       2.39529e-01       1.05705e-04       6.47669e+01
 19.400      2.13593e+02      -4.25360e-01       2.26420e-01       1.03947e-04       6.37209e+01
 19.500      2.13697e+02      -5.97121e-01       2.22598e-01       1.02214e-04       6.26891e+01
 19.600      2.13802e+02      -7.73910e-01       2.27015e-01       1.00506e-04       6.16716e+01
 19.700      2.13906e+02      -9.55416e-01       2.38627e-01       9.88239e-05       6.06690e+01
 19.800      2.14010e+02      -1.14132e+00       2.56386e-01       9.71680e-05       5.96815e+01
 19.900      2.14115e+02      -1.33133e+00       2.79248e-01       9.55385e-05       5.87093e+01
 20.000      2.14219e+02      -1.52512e+00       3.06166e-01       9.39360e-05       5.77526e+01
 20.100      2.14323e+02      -1.72239e+00       3.36095e-01       9.23608e-05       5.68117e+01
 20.200      2.14427e+02      -1.92282e+00       3.67988e-01       9.08130e-05       5.58868e+01
 20.300      2.14531e+02      -2.12609e+00       4.00798e-01       8.92930e-05       5.49780e+01
