# Data Source: NASA MERRA (version 2)
# Model Time = 2011-05-31 18:00:00
# Location = [  39.1026,  -84.5123 ]
# Fields = [ Z(km), T(K), U(m/s), V(m/s), R(g/cm3), P(mbar) ]
# Ground Height = 0.165
  0.000      3.06297e+02       2.80532e+00      -3.57973e-02       1.16279e-03       1.02217e+03
  0.100      3.05415e+02       3.05228e+00       4.37678e-02       1.15315e-03       1.01078e+03
  0.200      3.04558e+02       3.34746e+00       1.22298e-01       1.14352e-03       9.99532e+02
  0.300      3.03699e+02       3.64054e+00       2.00872e-01       1.13399e-03       9.88406e+02
  0.400      3.02815e+02       3.88118e+00       2.80573e-01       1.12463e-03       9.77392e+02
  0.500      3.01884e+02       4.02690e+00       3.62963e-01       1.11550e-03       9.66479e+02
  0.600      3.00912e+02       4.09676e+00       4.53398e-01       1.10658e-03       9.55658e+02
  0.700      2.99919e+02       4.13735e+00       5.58545e-01       1.09777e-03       9.44923e+02
  0.800      2.98914e+02       4.15580e+00       6.72639e-01       1.08904e-03       9.34273e+02
  0.900      2.97897e+02       4.11688e+00       7.76602e-01       1.08041e-03       9.23711e+02
  1.000      2.96871e+02       4.01687e+00       8.54612e-01       1.07185e-03       9.13240e+02
  1.100      2.95860e+02       3.94554e+00       9.01722e-01       1.06328e-03       9.02855e+02
  1.200      2.94887e+02       4.00018e+00       9.17526e-01       1.05462e-03       8.92554e+02
  1.300      2.93961e+02       4.19636e+00       9.26985e-01       1.04583e-03       8.82337e+02
  1.400      2.93080e+02       4.50435e+00       9.69097e-01       1.03693e-03       8.72204e+02
  1.500      2.92243e+02       4.89398e+00       1.08301e+00       1.02793e-03       8.62159e+02
  1.600      2.91449e+02       5.33505e+00       1.30786e+00       1.01882e-03       8.52201e+02
  1.700      2.90697e+02       5.79705e+00       1.67755e+00       1.00963e-03       8.42333e+02
  1.800      2.89987e+02       6.24665e+00       2.18433e+00       1.00035e-03       8.32554e+02
  1.900      2.89316e+02       6.64923e+00       2.80060e+00       9.90999e-04       8.22863e+02
  2.000      2.88683e+02       6.97016e+00       3.49859e+00       9.81581e-04       8.13260e+02
  2.100      2.88088e+02       7.17478e+00       4.25060e+00       9.72102e-04       8.03745e+02
  2.200      2.87527e+02       7.23134e+00       5.02894e+00       9.62569e-04       7.94315e+02
  2.300      2.87003e+02       7.15032e+00       5.80710e+00       9.52987e-04       7.84974e+02
  2.400      2.86516e+02       6.97438e+00       6.55945e+00       9.43355e-04       7.75721e+02
  2.500      2.86067e+02       6.74700e+00       7.26034e+00       9.33676e-04       7.66559e+02
  2.600      2.85658e+02       6.51168e+00       7.88415e+00       9.23950e-04       7.57490e+02
  2.700      2.85291e+02       6.31185e+00       8.40531e+00       9.14178e-04       7.48515e+02
  2.800      2.84960e+02       6.17746e+00       8.81028e+00       9.04382e-04       7.39635e+02
  2.900      2.84645e+02       6.10534e+00       9.11517e+00       8.94628e-04       7.30849e+02
  3.000      2.84323e+02       6.08737e+00       9.34057e+00       8.84986e-04       7.22155e+02
  3.100      2.83971e+02       6.11537e+00       9.50704e+00       8.75525e-04       7.13551e+02
  3.200      2.83567e+02       6.18120e+00       9.63516e+00       8.66311e-04       7.05036e+02
  3.300      2.83088e+02       6.27677e+00       9.74533e+00       8.57405e-04       6.96610e+02
  3.400      2.82525e+02       6.39620e+00       9.85102e+00       8.48827e-04       6.88269e+02
  3.500      2.81885e+02       6.53644e+00       9.95683e+00       8.40546e-04       6.80011e+02
  3.600      2.81178e+02       6.69463e+00       1.00668e+01       8.32527e-04       6.71834e+02
  3.700      2.80413e+02       6.86791e+00       1.01848e+01       8.24737e-04       6.63736e+02
  3.800      2.79598e+02       7.05344e+00       1.03150e+01       8.17144e-04       6.55714e+02
  3.900      2.78742e+02       7.24834e+00       1.04613e+01       8.09718e-04       6.47766e+02
  4.000      2.77854e+02       7.44955e+00       1.06224e+01       8.02429e-04       6.39890e+02
  4.100      2.76942e+02       7.65364e+00       1.07879e+01       7.95253e-04       6.32086e+02
  4.200      2.76014e+02       7.85713e+00       1.09463e+01       7.88164e-04       6.24353e+02
  4.300      2.75078e+02       8.05655e+00       1.10862e+01       7.81140e-04       6.16689e+02
  4.400      2.74141e+02       8.24842e+00       1.11961e+01       7.74157e-04       6.09096e+02
  4.500      2.73212e+02       8.42926e+00       1.12648e+01       7.67193e-04       6.01571e+02
  4.600      2.72298e+02       8.59510e+00       1.12817e+01       7.60227e-04       5.94115e+02
  4.700      2.71400e+02       8.73813e+00       1.12448e+01       7.53258e-04       5.86726e+02
  4.800      2.70515e+02       8.84876e+00       1.11558e+01       7.46293e-04       5.79405e+02
  4.900      2.69640e+02       8.91740e+00       1.10164e+01       7.39340e-04       5.72151e+02
  5.000      2.68774e+02       8.93445e+00       1.08283e+01       7.32404e-04       5.64963e+02
  5.100      2.67915e+02       8.89034e+00       1.05932e+01       7.25492e-04       5.57842e+02
  5.200      2.67059e+02       8.77545e+00       1.03129e+01       7.18611e-04       5.50787e+02
  5.300      2.66207e+02       8.58357e+00       9.98998e+00       7.11765e-04       5.43797e+02
  5.400      2.65359e+02       8.32740e+00       9.63185e+00       7.04946e-04       5.36874e+02
  5.500      2.64523e+02       8.02622e+00       9.24774e+00       6.98144e-04       5.30017e+02
  5.600      2.63701e+02       7.69932e+00       8.84687e+00       6.91348e-04       5.23228e+02
  5.700      2.62900e+02       7.36601e+00       8.43844e+00       6.84547e-04       5.16507e+02
  5.800      2.62124e+02       7.04558e+00       8.03164e+00       6.77731e-04       5.09854e+02
  5.900      2.61377e+02       6.75732e+00       7.63569e+00       6.70891e-04       5.03270e+02
  6.000      2.60664e+02       6.52010e+00       7.25951e+00       6.64016e-04       4.96755e+02
  6.100      2.59984e+02       6.34299e+00       6.90570e+00       6.57113e-04       4.90309e+02
  6.200      2.59331e+02       6.22526e+00       6.57053e+00       6.50199e-04       4.83930e+02
  6.300      2.58696e+02       6.16571e+00       6.24999e+00       6.43291e-04       4.77616e+02
  6.400      2.58073e+02       6.16319e+00       5.94008e+00       6.36407e-04       4.71367e+02
  6.500      2.57455e+02       6.21652e+00       5.63678e+00       6.29563e-04       4.65181e+02
  6.600      2.56834e+02       6.32453e+00       5.33609e+00       6.22776e-04       4.59056e+02
  6.700      2.56203e+02       6.48604e+00       5.03399e+00       6.16061e-04       4.52991e+02
  6.800      2.55555e+02       6.69968e+00       4.72674e+00       6.09434e-04       4.46985e+02
  6.900      2.54889e+02       6.95953e+00       4.41639e+00       6.02899e-04       4.41039e+02
  7.000      2.54206e+02       7.25515e+00       4.11074e+00       5.96453e-04       4.35155e+02
  7.100      2.53510e+02       7.57591e+00       3.81785e+00       5.90093e-04       4.29336e+02
  7.200      2.52804e+02       7.91118e+00       3.54576e+00       5.83815e-04       4.23585e+02
  7.300      2.52090e+02       8.25034e+00       3.30253e+00       5.77615e-04       4.17903e+02
  7.400      2.51372e+02       8.58275e+00       3.09621e+00       5.71489e-04       4.12293e+02
  7.500      2.50652e+02       8.89779e+00       2.93486e+00       5.65435e-04       4.06757e+02
  7.600      2.49933e+02       9.18483e+00       2.82653e+00       5.59448e-04       4.01296e+02
  7.700      2.49218e+02       9.43398e+00       2.77788e+00       5.53525e-04       3.95911e+02
  7.800      2.48506e+02       9.64148e+00       2.78388e+00       5.47658e-04       3.90596e+02
  7.900      2.47796e+02       9.80667e+00       2.83368e+00       5.41838e-04       3.85341e+02
  8.000      2.47085e+02       9.92890e+00       2.91638e+00       5.36057e-04       3.80136e+02
  8.100      2.46372e+02       1.00075e+01       3.02106e+00       5.30305e-04       3.74972e+02
  8.200      2.45655e+02       1.00419e+01       3.13683e+00       5.24575e-04       3.69841e+02
  8.300      2.44932e+02       1.00314e+01       3.25277e+00       5.18859e-04       3.64734e+02
  8.400      2.44201e+02       9.97538e+00       3.35799e+00       5.13151e-04       3.59645e+02
  8.500      2.43460e+02       9.87315e+00       3.44157e+00       5.07443e-04       3.54566e+02
  8.600      2.42707e+02       9.72410e+00       3.49262e+00       5.01730e-04       3.49489e+02
  8.700      2.41942e+02       9.52945e+00       3.50374e+00       4.96013e-04       3.44418e+02
  8.800      2.41165e+02       9.29604e+00       3.47792e+00       4.90321e-04       3.39373e+02
  8.900      2.40380e+02       9.03172e+00       3.42007e+00       4.84686e-04       3.34380e+02
  9.000      2.39588e+02       8.74433e+00       3.33512e+00       4.79137e-04       3.29463e+02
  9.100      2.38791e+02       8.44173e+00       3.22797e+00       4.73703e-04       3.24643e+02
  9.200      2.37992e+02       8.13177e+00       3.10355e+00       4.68412e-04       3.19943e+02
  9.300      2.37193e+02       7.82230e+00       2.96676e+00       4.63289e-04       3.15381e+02
  9.400      2.36395e+02       7.52118e+00       2.82253e+00       4.58359e-04       3.10975e+02
  9.500      2.35601e+02       7.23625e+00       2.67576e+00       4.53645e-04       3.06744e+02
  9.600      2.34814e+02       6.97537e+00       2.53136e+00       4.49171e-04       3.02703e+02
  9.700      2.34035e+02       6.74635e+00       2.39424e+00       4.44957e-04       2.98868e+02
  9.800      2.33265e+02       6.55357e+00       2.26687e+00       4.41006e-04       2.95241e+02
  9.900      2.32505e+02       6.39565e+00       2.14774e+00       4.37289e-04       2.91798e+02
 10.000      2.31754e+02       6.27063e+00       2.03491e+00       4.33774e-04       2.88518e+02
 10.100      2.31013e+02       6.17658e+00       1.92647e+00       4.30431e-04       2.85379e+02
 10.200      2.30281e+02       6.11154e+00       1.82049e+00       4.27231e-04       2.82360e+02
 10.300      2.29559e+02       6.07356e+00       1.71506e+00       4.24146e-04       2.79442e+02
 10.400      2.28845e+02       6.06070e+00       1.60825e+00       4.21150e-04       2.76605e+02
 10.500      2.28140e+02       6.07101e+00       1.49813e+00       4.18214e-04       2.73831e+02
 10.600      2.27445e+02       6.10254e+00       1.38279e+00       4.15315e-04       2.71103e+02
 10.700      2.26758e+02       6.15335e+00       1.26031e+00       4.12425e-04       2.68404e+02
 10.800      2.26079e+02       6.22148e+00       1.12876e+00       4.09523e-04       2.65718e+02
 10.900      2.25410e+02       6.30499e+00       9.86221e-01       4.06583e-04       2.63029e+02
 11.000      2.24748e+02       6.40194e+00       8.30769e-01       4.03582e-04       2.60322e+02
 11.100      2.24095e+02       6.51036e+00       6.60484e-01       4.00499e-04       2.57582e+02
 11.200      2.23450e+02       6.62833e+00       4.73446e-01       3.97313e-04       2.54798e+02
 11.300      2.22814e+02       6.75388e+00       2.67728e-01       3.94001e-04       2.51954e+02
 11.400      2.22185e+02       6.88506e+00       4.14573e-02       3.90546e-04       2.49040e+02
 11.500      2.21565e+02       7.01908e+00      -2.04540e-01       3.86935e-04       2.46049e+02
 11.600      2.20955e+02       7.15185e+00      -4.65149e-01       3.83168e-04       2.42983e+02
 11.700      2.20358e+02       7.27915e+00      -7.34881e-01       3.79247e-04       2.39846e+02
 11.800      2.19774e+02       7.39680e+00      -1.00825e+00       3.75173e-04       2.36641e+02
 11.900      2.19207e+02       7.50057e+00      -1.27977e+00       3.70947e-04       2.33371e+02
 12.000      2.18657e+02       7.58627e+00      -1.54394e+00       3.66573e-04       2.30041e+02
 12.100      2.18126e+02       7.64967e+00      -1.79529e+00       3.62052e-04       2.26653e+02
 12.200      2.17618e+02       7.68659e+00      -2.02831e+00       3.57388e-04       2.23211e+02
 12.300      2.17132e+02       7.69280e+00      -2.23754e+00       3.52583e-04       2.19718e+02
 12.400      2.16671e+02       7.66411e+00      -2.41746e+00       3.47641e-04       2.16179e+02
 12.500      2.16238e+02       7.59631e+00      -2.56261e+00       3.42566e-04       2.12597e+02
 12.600      2.15833e+02       7.48518e+00      -2.66748e+00       3.37361e-04       2.08975e+02
 12.700      2.15459e+02       7.32653e+00      -2.72659e+00       3.32033e-04       2.05318e+02
 12.800      2.15117e+02       7.11615e+00      -2.73445e+00       3.26585e-04       2.01628e+02
 12.900      2.14809e+02       6.85016e+00      -2.68593e+00       3.21023e-04       1.97911e+02
 13.000      2.14534e+02       6.53074e+00      -2.58205e+00       3.15366e-04       1.94175e+02
 13.100      2.14290e+02       6.16515e+00      -2.42910e+00       3.09646e-04       1.90436e+02
 13.200      2.14071e+02       5.76086e+00      -2.23352e+00       3.03890e-04       1.86705e+02
 13.300      2.13876e+02       5.32531e+00      -2.00176e+00       2.98126e-04       1.82997e+02
 13.400      2.13700e+02       4.86596e+00      -1.74029e+00       2.92380e-04       1.79322e+02
 13.500      2.13540e+02       4.39024e+00      -1.45553e+00       2.86674e-04       1.75690e+02
 13.600      2.13392e+02       3.90561e+00      -1.15396e+00       2.81031e-04       1.72114e+02
 13.700      2.13254e+02       3.41953e+00      -8.42010e-01       2.75472e-04       1.68600e+02
 13.800      2.13122e+02       2.93943e+00      -5.26139e-01       2.70015e-04       1.65157e+02
 13.900      2.12993e+02       2.47277e+00      -2.12799e-01       2.64677e-04       1.61794e+02
 14.000      2.12862e+02       2.02700e+00       9.15650e-02       2.59475e-04       1.58517e+02
 14.100      2.12727e+02       1.60957e+00       3.80499e-01       2.54422e-04       1.55332e+02
 14.200      2.12584e+02       1.22793e+00       6.47551e-01       2.49533e-04       1.52244e+02
 14.300      2.12430e+02       8.89502e-01       8.86297e-01       2.44818e-04       1.49259e+02
 14.400      2.12263e+02       5.98357e-01       1.09283e+00       2.40282e-04       1.46378e+02
 14.500      2.12083e+02       3.52094e-01       1.26816e+00       2.35915e-04       1.43597e+02
 14.600      2.11892e+02       1.47580e-01       1.41384e+00       2.31708e-04       1.40909e+02
 14.700      2.11690e+02      -1.83243e-02       1.53143e+00       2.27650e-04       1.38309e+02
 14.800      2.11479e+02      -1.48761e-01       1.62249e+00       2.23733e-04       1.35793e+02
 14.900      2.11259e+02      -2.46864e-01       1.68857e+00       2.19947e-04       1.33357e+02
 15.000      2.11031e+02      -3.15777e-01       1.73123e+00       2.16285e-04       1.30995e+02
 15.100      2.10796e+02      -3.58635e-01       1.75204e+00       2.12739e-04       1.28704e+02
 15.200      2.10556e+02      -3.78577e-01       1.75255e+00       2.09301e-04       1.26479e+02
 15.300      2.10310e+02      -3.78744e-01       1.73432e+00       2.05964e-04       1.24318e+02
 15.400      2.10061e+02      -3.62272e-01       1.69891e+00       2.02722e-04       1.22216e+02
 15.500      2.09810e+02      -3.32301e-01       1.64788e+00       1.99569e-04       1.20171e+02
 15.600      2.09556e+02      -2.91970e-01       1.58278e+00       1.96498e-04       1.18179e+02
 15.700      2.09301e+02      -2.44417e-01       1.50518e+00       1.93504e-04       1.16236e+02
 15.800      2.09046e+02      -1.92781e-01       1.41662e+00       1.90581e-04       1.14341e+02
 15.900      2.08793e+02      -1.40201e-01       1.31868e+00       1.87724e-04       1.12491e+02
 16.000      2.08541e+02      -8.98142e-02       1.21291e+00       1.84928e-04       1.10682e+02
 16.100      2.08292e+02      -4.47606e-02       1.10087e+00       1.82188e-04       1.08912e+02
 16.200      2.08048e+02      -8.17868e-03       9.84113e-01       1.79501e-04       1.07180e+02
 16.300      2.07808e+02       1.67929e-02       8.64204e-01       1.76862e-04       1.05482e+02
 16.400      2.07574e+02       2.70157e-02       7.42697e-01       1.74266e-04       1.03817e+02
 16.500      2.07347e+02       1.93511e-02       6.21152e-01       1.71710e-04       1.02182e+02
 16.600      2.07127e+02      -9.33991e-03       5.01128e-01       1.69191e-04       1.00576e+02
 16.700      2.06917e+02      -6.19840e-02       3.84117e-01       1.66704e-04       9.89971e+01
 16.800      2.06715e+02      -1.38756e-01       2.70753e-01       1.64248e-04       9.74437e+01
 16.900      2.06525e+02      -2.37915e-01       1.61061e-01       1.61821e-04       9.59152e+01
 17.000      2.06345e+02      -3.57678e-01       5.50608e-02       1.59421e-04       9.44108e+01
 17.100      2.06176e+02      -4.96261e-01      -4.72287e-02       1.57049e-04       9.29297e+01
 17.200      2.06020e+02      -6.51881e-01      -1.45790e-01       1.54701e-04       9.14712e+01
 17.300      2.05877e+02      -8.22754e-01      -2.40603e-01       1.52377e-04       9.00347e+01
 17.400      2.05747e+02      -1.00710e+00      -3.31655e-01       1.50077e-04       8.86195e+01
 17.500      2.05632e+02      -1.20314e+00      -4.18924e-01       1.47798e-04       8.72249e+01
 17.600      2.05531e+02      -1.40908e+00      -5.02393e-01       1.45540e-04       8.58504e+01
 17.700      2.05446e+02      -1.62315e+00      -5.82045e-01       1.43302e-04       8.44954e+01
 17.800      2.05378e+02      -1.84356e+00      -6.57859e-01       1.41083e-04       8.31593e+01
 17.900      2.05326e+02      -2.06853e+00      -7.29821e-01       1.38883e-04       8.18416e+01
 18.000      2.05292e+02      -2.29627e+00      -7.97912e-01       1.36699e-04       8.05417e+01
 18.100      2.05277e+02      -2.52501e+00      -8.62113e-01       1.34533e-04       7.92591e+01
 18.200      2.05280e+02      -2.75296e+00      -9.22406e-01       1.32382e-04       7.79935e+01
 18.300      2.05303e+02      -2.97833e+00      -9.78773e-01       1.30248e-04       7.67443e+01
 18.400      2.05346e+02      -3.19935e+00      -1.03120e+00       1.28128e-04       7.55112e+01
 18.500      2.05411e+02      -3.41423e+00      -1.07966e+00       1.26022e-04       7.42936e+01
 18.600      2.05497e+02      -3.62120e+00      -1.12415e+00       1.23931e-04       7.30912e+01
 18.700      2.05605e+02      -3.81846e+00      -1.16463e+00       1.21853e-04       7.19036e+01
 18.800      2.05736e+02      -4.00423e+00      -1.20111e+00       1.19788e-04       7.07305e+01
 18.900      2.05891e+02      -4.17675e+00      -1.23355e+00       1.17737e-04       6.95715e+01
 19.000      2.06070e+02      -4.33533e+00      -1.26204e+00       1.15699e-04       6.84267e+01
 19.100      2.06270e+02      -4.48074e+00      -1.28681e+00       1.13677e-04       6.72963e+01
 19.200      2.06490e+02      -4.61386e+00      -1.30807e+00       1.11674e-04       6.61810e+01
 19.300      2.06729e+02      -4.73559e+00      -1.32607e+00       1.09691e-04       6.50810e+01
 19.400      2.06984e+02      -4.84681e+00      -1.34102e+00       1.07731e-04       6.39969e+01
 19.500      2.07255e+02      -4.94842e+00      -1.35317e+00       1.05794e-04       6.29288e+01
 19.600      2.07538e+02      -5.04129e+00      -1.36273e+00       1.03884e-04       6.18770e+01
 19.700      2.07833e+02      -5.12632e+00      -1.36995e+00       1.02001e-04       6.08419e+01
 19.800      2.08138e+02      -5.20439e+00      -1.37504e+00       1.00147e-04       5.98238e+01
 19.900      2.08451e+02      -5.27641e+00      -1.37825e+00       9.83237e-05       5.88227e+01
 20.000      2.08771e+02      -5.34324e+00      -1.37979e+00       9.65312e-05       5.78388e+01
 20.100      2.09095e+02      -5.40578e+00      -1.37990e+00       9.47712e-05       5.68724e+01
 20.200      2.09422e+02      -5.46493e+00      -1.37881e+00       9.30444e-05       5.59235e+01
 20.300      2.09751e+02      -5.52156e+00      -1.37675e+00       9.13518e-05       5.49924e+01
