# Data Source: NASA MERRA (version 1)
# Model Time = 2010-07-22 18:00:00
# Location = [  39.7393, -104.9900 ]
# Fields = [ Z(km), T(K), U(m/s), V(m/s), R(g/cm3), P(mbar) ]
# Ground Height = 1.589
  0.000      3.12815e+02      -3.26724e-01      -3.18610e-01       1.12508e-03       1.01007e+03
  0.100      3.12230e+02      -3.85985e-01      -3.69019e-01       1.11402e-03       9.98270e+02
  0.200      3.11639e+02      -4.42512e-01      -4.15559e-01       1.10309e-03       9.86606e+02
  0.300      3.11003e+02      -4.77725e-01      -4.31961e-01       1.09245e-03       9.75096e+02
  0.400      3.10304e+02      -4.81316e-01      -4.04089e-01       1.08217e-03       9.63749e+02
  0.500      3.09608e+02      -4.76894e-01      -3.67592e-01       1.07201e-03       9.52558e+02
  0.600      3.08989e+02      -4.91304e-01      -3.63769e-01       1.06170e-03       9.41515e+02
  0.700      3.08416e+02      -5.06838e-01      -3.75901e-01       1.05136e-03       9.30618e+02
  0.800      3.07810e+02      -4.85562e-01      -3.60326e-01       1.04127e-03       9.19870e+02
  0.900      3.07156e+02      -4.27790e-01      -3.07928e-01       1.03146e-03       9.09268e+02
  1.000      3.06508e+02      -3.74372e-01      -2.46272e-01       1.02175e-03       8.98809e+02
  1.100      3.05904e+02      -3.54806e-01      -1.96837e-01       1.01201e-03       8.88489e+02
  1.200      3.05328e+02      -3.60715e-01      -1.58760e-01       1.00230e-03       8.78307e+02
  1.300      3.04750e+02      -3.77025e-01      -1.27230e-01       9.92714e-04       8.68261e+02
  1.400      3.04145e+02      -3.88663e-01      -9.74356e-02       9.83338e-04       8.58353e+02
  1.500      3.03485e+02      -3.80567e-01      -6.45703e-02       9.74258e-04       8.48581e+02
  1.600      3.02752e+02      -3.44040e-01      -2.71114e-02       9.65522e-04       8.38941e+02
  1.700      3.01959e+02      -2.86920e-01       7.93176e-03       9.57078e-04       8.29426e+02
  1.800      3.01120e+02      -2.19698e-01       3.21812e-02       9.48865e-04       8.20023e+02
  1.900      3.00251e+02      -1.52866e-01       3.72592e-02       9.40820e-04       8.10724e+02
  2.000      2.99367e+02      -9.69160e-02       1.47876e-02       9.32884e-04       8.01520e+02
  2.100      2.98483e+02      -5.98161e-02      -4.20515e-02       9.25004e-04       7.92401e+02
  2.200      2.97601e+02      -3.27998e-02      -1.29728e-01       9.17167e-04       7.83366e+02
  2.300      2.96721e+02      -2.86095e-04      -2.40498e-01       9.09375e-04       7.74414e+02
  2.400      2.95843e+02       5.33267e-02      -3.66604e-01       9.01630e-04       7.65547e+02
  2.500      2.94966e+02       1.43639e-01      -5.00290e-01       8.93935e-04       7.56762e+02
  2.600      2.94089e+02       2.86202e-01      -6.33816e-01       8.86292e-04       7.48061e+02
  2.700      2.93211e+02       4.88344e-01      -7.62031e-01       8.78703e-04       7.39443e+02
  2.800      2.92331e+02       7.40221e-01      -8.85193e-01       8.71174e-04       7.30906e+02
  2.900      2.91445e+02       1.02984e+00      -1.00424e+00       8.63707e-04       7.22447e+02
  3.000      2.90553e+02       1.34520e+00      -1.12011e+00       8.56308e-04       7.14064e+02
  3.100      2.89652e+02       1.67431e+00      -1.23373e+00       8.48979e-04       7.05757e+02
  3.200      2.88739e+02       2.00522e+00      -1.34603e+00       8.41725e-04       6.97522e+02
  3.300      2.87816e+02       2.32946e+00      -1.45660e+00       8.34543e-04       6.89358e+02
  3.400      2.86885e+02       2.64439e+00      -1.56276e+00       8.27421e-04       6.81266e+02
  3.500      2.85952e+02       2.94797e+00      -1.66165e+00       8.20345e-04       6.73242e+02
  3.600      2.85020e+02       3.23813e+00      -1.75038e+00       8.13303e-04       6.65288e+02
  3.700      2.84094e+02       3.51281e+00      -1.82608e+00       8.06282e-04       6.57402e+02
  3.800      2.83178e+02       3.76996e+00      -1.88587e+00       7.99270e-04       6.49584e+02
  3.900      2.82276e+02       4.00730e+00      -1.92676e+00       7.92258e-04       6.41833e+02
  4.000      2.81387e+02       4.22180e+00      -1.94541e+00       7.85247e-04       6.34150e+02
  4.100      2.80509e+02       4.41029e+00      -1.93839e+00       7.78243e-04       6.26534e+02
  4.200      2.79643e+02       4.56958e+00      -1.90228e+00       7.71248e-04       6.18985e+02
  4.300      2.78787e+02       4.69650e+00      -1.83365e+00       7.64267e-04       6.11504e+02
  4.400      2.77940e+02       4.78785e+00      -1.72907e+00       7.57304e-04       6.04092e+02
  4.500      2.77100e+02       4.84069e+00      -1.58525e+00       7.50363e-04       5.96747e+02
  4.600      2.76269e+02       4.85898e+00      -1.40270e+00       7.43444e-04       5.89470e+02
  4.700      2.75447e+02       4.85467e+00      -1.18635e+00       7.36543e-04       5.82261e+02
  4.800      2.74635e+02       4.84018e+00      -9.41367e-01       7.29657e-04       5.75118e+02
  4.900      2.73836e+02       4.82791e+00      -6.72936e-01       7.22783e-04       5.68042e+02
  5.000      2.73050e+02       4.83027e+00      -3.86227e-01       7.15917e-04       5.61031e+02
  5.100      2.72279e+02       4.85966e+00      -8.64132e-02       7.09057e-04       5.54085e+02
  5.200      2.71523e+02       4.92834e+00       2.21404e-01       7.02200e-04       5.47204e+02
  5.300      2.70786e+02       5.04289e+00       5.34903e-01       6.95342e-04       5.40388e+02
  5.400      2.70067e+02       5.20265e+00       8.55291e-01       6.88482e-04       5.33637e+02
  5.500      2.69369e+02       5.40649e+00       1.18401e+00       6.81620e-04       5.26952e+02
  5.600      2.68693e+02       5.65329e+00       1.52250e+00       6.74752e-04       5.20334e+02
  5.700      2.68040e+02       5.94193e+00       1.87221e+00       6.67877e-04       5.13782e+02
  5.800      2.67413e+02       6.27128e+00       2.23457e+00       6.60995e-04       5.07298e+02
  5.900      2.66813e+02       6.64022e+00       2.61103e+00       6.54104e-04       5.00882e+02
  6.000      2.66240e+02       7.04650e+00       3.00135e+00       6.47204e-04       4.94533e+02
  6.100      2.65689e+02       7.48114e+00       3.39512e+00       6.40308e-04       4.88253e+02
  6.200      2.65155e+02       7.93260e+00       3.77811e+00       6.33433e-04       4.82039e+02
  6.300      2.64630e+02       8.38936e+00       4.13606e+00       6.26595e-04       4.75892e+02
  6.400      2.64109e+02       8.83985e+00       4.45473e+00       6.19808e-04       4.69810e+02
  6.500      2.63583e+02       9.27256e+00       4.71988e+00       6.13089e-04       4.63793e+02
  6.600      2.63048e+02       9.67593e+00       4.91725e+00       6.06452e-04       4.57839e+02
  6.700      2.62496e+02       1.00384e+01       5.03261e+00       5.99909e-04       4.51950e+02
  6.800      2.61921e+02       1.03496e+01       5.05369e+00       5.93474e-04       4.46123e+02
  6.900      2.61323e+02       1.06112e+01       4.99125e+00       5.87146e-04       4.40358e+02
  7.000      2.60704e+02       1.08330e+01       4.87094e+00       5.80917e-04       4.34654e+02
  7.100      2.60068e+02       1.10247e+01       4.71862e+00       5.74776e-04       4.29010e+02
  7.200      2.59418e+02       1.11964e+01       4.56019e+00       5.68718e-04       4.23426e+02
  7.300      2.58756e+02       1.13577e+01       4.42151e+00       5.62732e-04       4.17902e+02
  7.400      2.58087e+02       1.15186e+01       4.32848e+00       5.56811e-04       4.12435e+02
  7.500      2.57412e+02       1.16889e+01       4.30697e+00       5.50948e-04       4.07026e+02
  7.600      2.56736e+02       1.18785e+01       4.38286e+00       5.45136e-04       4.01674e+02
  7.700      2.56061e+02       1.20964e+01       4.57962e+00       5.39367e-04       3.96378e+02
  7.800      2.55388e+02       1.23424e+01       4.89433e+00       5.33638e-04       3.91137e+02
  7.900      2.54719e+02       1.26110e+01       5.30790e+00       5.27947e-04       3.85953e+02
  8.000      2.54055e+02       1.28963e+01       5.80100e+00       5.22292e-04       3.80824e+02
  8.100      2.53397e+02       1.31928e+01       6.35431e+00       5.16672e-04       3.75750e+02
  8.200      2.52745e+02       1.34945e+01       6.94849e+00       5.11085e-04       3.70731e+02
  8.300      2.52101e+02       1.37958e+01       7.56422e+00       5.05530e-04       3.65766e+02
  8.400      2.51466e+02       1.40909e+01       8.18215e+00       5.00005e-04       3.60857e+02
  8.500      2.50840e+02       1.43741e+01       8.78298e+00       4.94508e-04       3.56001e+02
  8.600      2.50224e+02       1.46397e+01       9.34737e+00       4.89038e-04       3.51200e+02
  8.700      2.49620e+02       1.48824e+01       9.85768e+00       4.83595e-04       3.46452e+02
  8.800      2.49025e+02       1.51023e+01       1.03112e+01       4.78181e-04       3.41757e+02
  8.900      2.48436e+02       1.53019e+01       1.07127e+01       4.72805e-04       3.37115e+02
  9.000      2.47850e+02       1.54839e+01       1.10673e+01       4.67471e-04       3.32525e+02
  9.100      2.47263e+02       1.56509e+01       1.13800e+01       4.62185e-04       3.27986e+02
  9.200      2.46672e+02       1.58055e+01       1.16557e+01       4.56952e-04       3.23498e+02
  9.300      2.46073e+02       1.59504e+01       1.18994e+01       4.51779e-04       3.19060e+02
  9.400      2.45465e+02       1.60882e+01       1.21162e+01       4.46670e-04       3.14671e+02
  9.500      2.44842e+02       1.62215e+01       1.23109e+01       4.41630e-04       3.10331e+02
  9.600      2.44202e+02       1.63530e+01       1.24886e+01       4.36664e-04       3.06040e+02
  9.700      2.43542e+02       1.64852e+01       1.26543e+01       4.31776e-04       3.01796e+02
  9.800      2.42858e+02       1.66207e+01       1.28127e+01       4.26971e-04       2.97600e+02
  9.900      2.42151e+02       1.67602e+01       1.29641e+01       4.22247e-04       2.93450e+02
 10.000      2.41423e+02       1.69031e+01       1.31056e+01       4.17597e-04       2.89347e+02
 10.100      2.40678e+02       1.70486e+01       1.32338e+01       4.13015e-04       2.85289e+02
 10.200      2.39919e+02       1.71960e+01       1.33456e+01       4.08494e-04       2.81276e+02
 10.300      2.39149e+02       1.73446e+01       1.34377e+01       4.04029e-04       2.77308e+02
 10.400      2.38370e+02       1.74936e+01       1.35068e+01       3.99614e-04       2.73384e+02
 10.500      2.37585e+02       1.76422e+01       1.35497e+01       3.95242e-04       2.69504e+02
 10.600      2.36798e+02       1.77898e+01       1.35633e+01       3.90909e-04       2.65666e+02
 10.700      2.36012e+02       1.79355e+01       1.35442e+01       3.86609e-04       2.61872e+02
 10.800      2.35230e+02       1.80788e+01       1.34892e+01       3.82336e-04       2.58119e+02
 10.900      2.34455e+02       1.82187e+01       1.33952e+01       3.78086e-04       2.54409e+02
 11.000      2.33689e+02       1.83546e+01       1.32588e+01       3.73855e-04       2.50739e+02
 11.100      2.32935e+02       1.84858e+01       1.30777e+01       3.69636e-04       2.47111e+02
 11.200      2.32193e+02       1.86108e+01       1.28565e+01       3.65433e-04       2.43523e+02
 11.300      2.31461e+02       1.87283e+01       1.26026e+01       3.61249e-04       2.39975e+02
 11.400      2.30737e+02       1.88368e+01       1.23236e+01       3.57087e-04       2.36468e+02
 11.500      2.30018e+02       1.89348e+01       1.20270e+01       3.52950e-04       2.33000e+02
 11.600      2.29303e+02       1.90208e+01       1.17204e+01       3.48841e-04       2.29572e+02
 11.700      2.28589e+02       1.90934e+01       1.14112e+01       3.44764e-04       2.26183e+02
 11.800      2.27875e+02       1.91510e+01       1.11071e+01       3.40722e-04       2.22833e+02
 11.900      2.27159e+02       1.91922e+01       1.08156e+01       3.36718e-04       2.19522e+02
 12.000      2.26438e+02       1.92156e+01       1.05441e+01       3.32754e-04       2.16249e+02
 12.100      2.25711e+02       1.92196e+01       1.03004e+01       3.28833e-04       2.13015e+02
 12.200      2.24975e+02       1.92028e+01       1.00918e+01       3.24958e-04       2.09818e+02
 12.300      2.24229e+02       1.91636e+01       9.92599e+00       3.21130e-04       2.06659e+02
 12.400      2.23470e+02       1.91007e+01       9.81046e+00       3.17354e-04       2.03538e+02
 12.500      2.22696e+02       1.90126e+01       9.75274e+00       3.13630e-04       2.00453e+02
 12.600      2.21907e+02       1.88981e+01       9.75892e+00       3.09960e-04       1.97405e+02
 12.700      2.21102e+02       1.87584e+01       9.82592e+00       3.06342e-04       1.94394e+02
 12.800      2.20286e+02       1.85957e+01       9.94709e+00       3.02771e-04       1.91419e+02
 12.900      2.19461e+02       1.84120e+01       1.01158e+01       2.99243e-04       1.88479e+02
 13.000      2.18629e+02       1.82094e+01       1.03254e+01       2.95753e-04       1.85575e+02
 13.100      2.17794e+02       1.79900e+01       1.05693e+01       2.92298e-04       1.82706e+02
 13.200      2.16958e+02       1.77560e+01       1.08408e+01       2.88873e-04       1.79872e+02
 13.300      2.16123e+02       1.75093e+01       1.11333e+01       2.85475e-04       1.77072e+02
 13.400      2.15292e+02       1.72521e+01       1.14401e+01       2.82100e-04       1.74306e+02
 13.500      2.14469e+02       1.69865e+01       1.17546e+01       2.78744e-04       1.71574e+02
 13.600      2.13656e+02       1.67145e+01       1.20702e+01       2.75404e-04       1.68876e+02
 13.700      2.12855e+02       1.64383e+01       1.23802e+01       2.72077e-04       1.66210e+02
 13.800      2.12070e+02       1.61600e+01       1.26780e+01       2.68759e-04       1.63578e+02
 13.900      2.11302e+02       1.58816e+01       1.29569e+01       2.65448e-04       1.60978e+02
 14.000      2.10556e+02       1.56053e+01       1.32104e+01       2.62140e-04       1.58410e+02
 14.100      2.09832e+02       1.53331e+01       1.34317e+01       2.58832e-04       1.55873e+02
 14.200      2.09135e+02       1.50671e+01       1.36142e+01       2.55522e-04       1.53369e+02
 14.300      2.08467e+02       1.48095e+01       1.37513e+01       2.52207e-04       1.50896e+02
 14.400      2.07830e+02       1.45621e+01       1.38367e+01       2.48886e-04       1.48454e+02
 14.500      2.07226e+02       1.43253e+01       1.38694e+01       2.45557e-04       1.46042e+02
 14.600      2.06655e+02       1.40982e+01       1.38519e+01       2.42223e-04       1.43663e+02
 14.700      2.06118e+02       1.38798e+01       1.37867e+01       2.38886e-04       1.41315e+02
 14.800      2.05614e+02       1.36693e+01       1.36766e+01       2.35546e-04       1.38999e+02
 14.900      2.05145e+02       1.34658e+01       1.35240e+01       2.32206e-04       1.36715e+02
 15.000      2.04710e+02       1.32682e+01       1.33316e+01       2.28867e-04       1.34464e+02
 15.100      2.04310e+02       1.30758e+01       1.31020e+01       2.25531e-04       1.32245e+02
 15.200      2.03946e+02       1.28876e+01       1.28377e+01       2.22199e-04       1.30058e+02
 15.300      2.03616e+02       1.27027e+01       1.25415e+01       2.18873e-04       1.27905e+02
 15.400      2.03323e+02       1.25202e+01       1.22159e+01       2.15554e-04       1.25784e+02
 15.500      2.03066e+02       1.23391e+01       1.18635e+01       2.12244e-04       1.23696e+02
 15.600      2.02846e+02       1.21586e+01       1.14869e+01       2.08945e-04       1.21641e+02
 15.700      2.02662e+02       1.19778e+01       1.10887e+01       2.05657e-04       1.19618e+02
 15.800      2.02516e+02       1.17956e+01       1.06715e+01       2.02382e-04       1.17629e+02
 15.900      2.02407e+02       1.16113e+01       1.02379e+01       1.99122e-04       1.15672e+02
 16.000      2.02337e+02       1.14239e+01       9.79059e+00       1.95877e-04       1.13747e+02
 16.100      2.02304e+02       1.12324e+01       9.33207e+00       1.92650e-04       1.11855e+02
 16.200      2.02310e+02       1.10361e+01       8.86497e+00       1.89441e-04       1.09995e+02
 16.300      2.02356e+02       1.08339e+01       8.39191e+00       1.86251e-04       1.08168e+02
 16.400      2.02440e+02       1.06249e+01       7.91548e+00       1.83083e-04       1.06372e+02
 16.500      2.02565e+02       1.04083e+01       7.43828e+00       1.79937e-04       1.04608e+02
 16.600      2.02729e+02       1.01831e+01       6.96292e+00       1.76814e-04       1.02876e+02
 16.700      2.02934e+02       9.94846e+00       6.49200e+00       1.73715e-04       1.01175e+02
 16.800      2.03179e+02       9.70339e+00       6.02814e+00       1.70642e-04       9.95058e+01
 16.900      2.03464e+02       9.44769e+00       5.57344e+00       1.67597e-04       9.78670e+01
 17.000      2.03786e+02       9.18221e+00       5.12928e+00       1.64582e-04       9.62583e+01
 17.100      2.04141e+02       8.90796e+00       4.69692e+00       1.61600e-04       9.46790e+01
 17.200      2.04525e+02       8.62591e+00       4.27764e+00       1.58655e-04       9.31286e+01
 17.300      2.04936e+02       8.33704e+00       3.87274e+00       1.55749e-04       9.16062e+01
 17.400      2.05370e+02       8.04235e+00       3.48346e+00       1.52883e-04       9.01114e+01
 17.500      2.05823e+02       7.74281e+00       3.11110e+00       1.50062e-04       8.86434e+01
 17.600      2.06293e+02       7.43941e+00       2.75693e+00       1.47285e-04       8.72018e+01
 17.700      2.06775e+02       7.13313e+00       2.42223e+00       1.44556e-04       8.57859e+01
 17.800      2.07266e+02       6.82497e+00       2.10828e+00       1.41875e-04       8.43952e+01
 17.900      2.07764e+02       6.51589e+00       1.81634e+00       1.39245e-04       8.30290e+01
 18.000      2.08263e+02       6.20689e+00       1.54770e+00       1.36665e-04       8.16870e+01
 18.100      2.08762e+02       5.89894e+00       1.30363e+00       1.34138e-04       8.03684e+01
 18.200      2.09257e+02       5.59304e+00       1.08542e+00       1.31664e-04       7.90730e+01
 18.300      2.09744e+02       5.29018e+00       8.94331e-01       1.29244e-04       7.78002e+01
 18.400      2.10219e+02       4.99131e+00       7.31647e-01       1.26878e-04       7.65494e+01
 18.500      2.10680e+02       4.69745e+00       5.98644e-01       1.24568e-04       7.53202e+01
 18.600      2.11123e+02       4.40956e+00       4.96598e-01       1.22313e-04       7.41122e+01
 18.700      2.11545e+02       4.12864e+00       4.26786e-01       1.20113e-04       7.29249e+01
 18.800      2.11942e+02       3.85567e+00       3.90486e-01       1.17970e-04       7.17578e+01
 18.900      2.12311e+02       3.59163e+00       3.88972e-01       1.15882e-04       7.06107e+01
 19.000      2.12649e+02       3.33747e+00       4.23450e-01       1.13850e-04       6.94829e+01
 19.100      2.12954e+02       3.09331e+00       4.93120e-01       1.11873e-04       6.83743e+01
 19.200      2.13228e+02       2.85832e+00       5.94959e-01       1.09948e-04       6.72844e+01
 19.300      2.13474e+02       2.63162e+00       7.25825e-01       1.08073e-04       6.62131e+01
 19.400      2.13694e+02       2.41233e+00       8.82585e-01       1.06244e-04       6.51600e+01
 19.500      2.13890e+02       2.19958e+00       1.06210e+00       1.04461e-04       6.41249e+01
 19.600      2.14063e+02       1.99249e+00       1.26123e+00       1.02720e-04       6.31074e+01
 19.700      2.14216e+02       1.79019e+00       1.47683e+00       1.01020e-04       6.21074e+01
 19.800      2.14351e+02       1.59181e+00       1.70577e+00       9.93592e-05       6.11245e+01
 19.900      2.14470e+02       1.39646e+00       1.94492e+00       9.77349e-05       6.01585e+01
 20.000      2.14574e+02       1.20326e+00       2.19112e+00       9.61456e-05       5.92091e+01
 20.100      2.14667e+02       1.01135e+00       2.44125e+00       9.45898e-05       5.82761e+01
 20.200      2.14749e+02       8.19843e-01       2.69216e+00       9.30657e-05       5.73592e+01
 20.300      2.14824e+02       6.27871e-01       2.94072e+00       9.15720e-05       5.64581e+01
