# Data Source: NASA GEOS5 Near-Real-Time
# Model Time = 2010-12-02 12:00:00
# Location = [  39.7393, -104.9900 ]
# Fields = [ Z(km), T(K), U(m/s), V(m/s), R(g/cm3), P(mbar) ]
# Ground Height = 1.589
  0.000      2.87021e+02      -3.12881e-01       1.90651e+00       1.24161e-03       1.02277e+03
  0.100      2.86322e+02      -2.99919e-01       1.88866e+00       1.22984e-03       1.01062e+03
  0.200      2.85594e+02      -3.10164e-01       1.88165e+00       1.21834e-03       9.98616e+02
  0.300      2.84870e+02      -3.17366e-01       1.87323e+00       1.20693e-03       9.86758e+02
  0.400      2.84182e+02      -2.95271e-01       1.85110e+00       1.19546e-03       9.75020e+02
  0.500      2.83543e+02      -2.32016e-01       1.81392e+00       1.18386e-03       9.63388e+02
  0.600      2.82906e+02      -1.73574e-01       1.80429e+00       1.17234e-03       9.51867e+02
  0.700      2.82220e+02      -1.68627e-01       1.86118e+00       1.16110e-03       9.40463e+02
  0.800      2.81537e+02      -1.88142e-01       1.92726e+00       1.14995e-03       9.29171e+02
  0.900      2.80941e+02      -1.76218e-01       1.91288e+00       1.13851e-03       9.17984e+02
  1.000      2.80412e+02      -1.37357e-01       1.81632e+00       1.12689e-03       9.06902e+02
  1.100      2.79856e+02      -1.18799e-01       1.69871e+00       1.11548e-03       8.95935e+02
  1.200      2.79203e+02      -1.46440e-01       1.61943e+00       1.10454e-03       8.85082e+02
  1.300      2.78422e+02      -2.15000e-01       1.63350e+00       1.09418e-03       8.74332e+02
  1.400      2.77540e+02      -3.03302e-01       1.76342e+00       1.08429e-03       8.63677e+02
  1.500      2.76780e+02      -3.45104e-01       1.92490e+00       1.07398e-03       8.53126e+02
  1.600      2.76379e+02      -2.69114e-01       2.01864e+00       1.06238e-03       8.42688e+02
  1.700      2.76313e+02      -4.80436e-02       2.01818e+00       1.04962e-03       8.32370e+02
  1.800      2.76404e+02       3.19339e-01       1.93977e+00       1.03643e-03       8.22176e+02
  1.900      2.76500e+02       8.13747e-01       1.79609e+00       1.02338e-03       8.12108e+02
  2.000      2.76500e+02       1.37960e+00       1.59230e+00       1.01085e-03       8.02164e+02
  2.100      2.76317e+02       1.96227e+00       1.33335e+00       9.99128e-04       7.92338e+02
  2.200      2.75923e+02       2.54452e+00       1.02843e+00       9.88288e-04       7.82625e+02
  2.300      2.75323e+02       3.12672e+00       6.88769e-01       9.78282e-04       7.73016e+02
  2.400      2.74553e+02       3.70365e+00       3.30287e-01       9.68954e-04       7.63504e+02
  2.500      2.73724e+02       4.25759e+00      -2.08605e-02       9.59897e-04       7.54084e+02
  2.600      2.72953e+02       4.77150e+00      -3.38922e-01       9.50694e-04       7.44749e+02
  2.700      2.72309e+02       5.26895e+00      -6.28558e-01       9.41110e-04       7.35502e+02
  2.800      2.71822e+02       5.80794e+00      -9.20185e-01       9.31063e-04       7.26350e+02
  2.900      2.71503e+02       6.43671e+00      -1.24104e+00       9.20547e-04       7.17302e+02
  3.000      2.71238e+02       7.13555e+00      -1.59323e+00       9.09954e-04       7.08356e+02
  3.100      2.70868e+02       7.85845e+00      -1.96916e+00       8.99814e-04       6.99508e+02
  3.200      2.70288e+02       8.58294e+00      -2.36586e+00       8.90462e-04       6.90756e+02
  3.300      2.69575e+02       9.36650e+00      -2.79617e+00       8.81625e-04       6.82096e+02
  3.400      2.68843e+02       1.02834e+01      -3.27626e+00       8.72919e-04       6.73525e+02
  3.500      2.68168e+02       1.13661e+01      -3.81304e+00       8.64093e-04       6.65041e+02
  3.600      2.67532e+02       1.25469e+01      -4.39121e+00       8.55204e-04       6.56641e+02
  3.700      2.66906e+02       1.37433e+01      -4.99219e+00       8.46353e-04       6.48323e+02
  3.800      2.66271e+02       1.48933e+01      -5.59805e+00       8.37591e-04       6.40086e+02
  3.900      2.65646e+02       1.59803e+01      -6.19236e+00       8.28869e-04       6.31934e+02
  4.000      2.65052e+02       1.69938e+01      -6.75886e+00       8.20128e-04       6.23870e+02
  4.100      2.64499e+02       1.79230e+01      -7.28506e+00       8.11338e-04       6.15896e+02
  4.200      2.63974e+02       1.87560e+01      -7.76827e+00       8.02542e-04       6.08010e+02
  4.300      2.63459e+02       1.94808e+01      -8.20742e+00       7.93794e-04       6.00210e+02
  4.400      2.62938e+02       2.00905e+01      -8.60266e+00       7.85140e-04       5.92492e+02
  4.500      2.62407e+02       2.06008e+01      -8.95944e+00       7.76590e-04       5.84857e+02
  4.600      2.61866e+02       2.10338e+01      -9.28463e+00       7.68144e-04       5.77303e+02
  4.700      2.61314e+02       2.14108e+01      -9.58537e+00       7.59803e-04       5.69831e+02
  4.800      2.60754e+02       2.17473e+01      -9.87121e+00       7.51560e-04       5.62440e+02
  4.900      2.60189e+02       2.20556e+01      -1.01532e+01       7.43403e-04       5.55130e+02
  5.000      2.59623e+02       2.23475e+01      -1.04424e+01       7.35322e-04       5.47902e+02
  5.100      2.59058e+02       2.26293e+01      -1.07459e+01       7.27310e-04       5.40753e+02
  5.200      2.58493e+02       2.28966e+01      -1.10643e+01       7.19369e-04       5.33683e+02
  5.300      2.57927e+02       2.31444e+01      -1.13976e+01       7.11501e-04       5.26688e+02
  5.400      2.57357e+02       2.33678e+01      -1.17448e+01       7.03708e-04       5.19768e+02
  5.500      2.56778e+02       2.35678e+01      -1.20995e+01       6.96005e-04       5.12922e+02
  5.600      2.56182e+02       2.37478e+01      -1.24519e+01       6.88412e-04       5.06150e+02
  5.700      2.55564e+02       2.39111e+01      -1.27927e+01       6.80948e-04       4.99454e+02
  5.800      2.54918e+02       2.40619e+01      -1.31142e+01       6.73622e-04       4.92832e+02
  5.900      2.54252e+02       2.42065e+01      -1.34153e+01       6.66414e-04       4.86284e+02
  6.000      2.53572e+02       2.43515e+01      -1.36960e+01       6.59300e-04       4.79806e+02
  6.100      2.52886e+02       2.45038e+01      -1.39563e+01       6.52256e-04       4.73396e+02
  6.200      2.52201e+02       2.46688e+01      -1.41964e+01       6.45263e-04       4.67053e+02
  6.300      2.51522e+02       2.48502e+01      -1.44161e+01       6.38312e-04       4.60777e+02
  6.400      2.50852e+02       2.50515e+01      -1.46154e+01       6.31393e-04       4.54568e+02
  6.500      2.50195e+02       2.52759e+01      -1.47940e+01       6.24500e-04       4.48427e+02
  6.600      2.49552e+02       2.55268e+01      -1.49527e+01       6.17628e-04       4.42355e+02
  6.700      2.48923e+02       2.58071e+01      -1.50929e+01       6.10783e-04       4.36349e+02
  6.800      2.48304e+02       2.61198e+01      -1.52163e+01       6.03973e-04       4.30411e+02
  6.900      2.47693e+02       2.64678e+01      -1.53248e+01       5.97204e-04       4.24539e+02
  7.000      2.47086e+02       2.68530e+01      -1.54187e+01       5.90483e-04       4.18734e+02
  7.100      2.46479e+02       2.72732e+01      -1.54945e+01       5.83822e-04       4.12993e+02
  7.200      2.45867e+02       2.77256e+01      -1.55478e+01       5.77235e-04       4.07318e+02
  7.300      2.45243e+02       2.82073e+01      -1.55741e+01       5.70730e-04       4.01707e+02
  7.400      2.44603e+02       2.87153e+01      -1.55701e+01       5.64321e-04       3.96160e+02
  7.500      2.43946e+02       2.92442e+01      -1.55405e+01       5.58009e-04       3.90675e+02
  7.600      2.43269e+02       2.97874e+01      -1.54956e+01       5.51794e-04       3.85252e+02
  7.700      2.42572e+02       3.03383e+01      -1.54456e+01       5.45676e-04       3.79890e+02
  7.800      2.41855e+02       3.08901e+01      -1.54006e+01       5.39653e-04       3.74586e+02
  7.900      2.41118e+02       3.14365e+01      -1.53687e+01       5.33723e-04       3.69341e+02
  8.000      2.40365e+02       3.19719e+01      -1.53511e+01       5.27876e-04       3.64153e+02
  8.100      2.39599e+02       3.24909e+01      -1.53476e+01       5.22101e-04       3.59022e+02
  8.200      2.38825e+02       3.29880e+01      -1.53580e+01       5.16389e-04       3.53947e+02
  8.300      2.38048e+02       3.34577e+01      -1.53822e+01       5.10729e-04       3.48928e+02
  8.400      2.37269e+02       3.38961e+01      -1.54169e+01       5.05115e-04       3.43965e+02
  8.500      2.36488e+02       3.43016e+01      -1.54524e+01       4.99550e-04       3.39056e+02
  8.600      2.35704e+02       3.46734e+01      -1.54781e+01       4.94037e-04       3.34201e+02
  8.700      2.34914e+02       3.50105e+01      -1.54832e+01       4.88578e-04       3.29401e+02
  8.800      2.34118e+02       3.53118e+01      -1.54573e+01       4.83175e-04       3.24654e+02
  8.900      2.33313e+02       3.55760e+01      -1.53957e+01       4.77833e-04       3.19961e+02
  9.000      2.32499e+02       3.58002e+01      -1.53129e+01       4.72549e-04       3.15319e+02
  9.100      2.31676e+02       3.59812e+01      -1.52273e+01       4.67325e-04       3.10729e+02
  9.200      2.30842e+02       3.61160e+01      -1.51575e+01       4.62160e-04       3.06189e+02
  9.300      2.29998e+02       3.62014e+01      -1.51217e+01       4.57054e-04       3.01699e+02
  9.400      2.29143e+02       3.62350e+01      -1.51375e+01       4.52008e-04       2.97258e+02
  9.500      2.28276e+02       3.62242e+01      -1.52115e+01       4.47019e-04       2.92865e+02
  9.600      2.27397e+02       3.61835e+01      -1.53416e+01       4.42088e-04       2.88520e+02
  9.700      2.26508e+02       3.61278e+01      -1.55258e+01       4.37215e-04       2.84224e+02
  9.800      2.25607e+02       3.60717e+01      -1.57620e+01       4.32398e-04       2.79975e+02
  9.900      2.24696e+02       3.60300e+01      -1.60482e+01       4.27637e-04       2.75774e+02
 10.000      2.23775e+02       3.60161e+01      -1.63821e+01       4.22929e-04       2.71620e+02
 10.100      2.22855e+02       3.60329e+01      -1.67593e+01       4.18255e-04       2.67513e+02
 10.200      2.21946e+02       3.60790e+01      -1.71749e+01       4.13592e-04       2.63453e+02
 10.300      2.21064e+02       3.61531e+01      -1.76238e+01       4.08915e-04       2.59437e+02
 10.400      2.20219e+02       3.62536e+01      -1.81009e+01       4.04202e-04       2.55467e+02
 10.500      2.19426e+02       3.63792e+01      -1.86011e+01       3.99429e-04       2.51542e+02
 10.600      2.18698e+02       3.65283e+01      -1.91184e+01       3.94575e-04       2.47660e+02
 10.700      2.18050e+02       3.66991e+01      -1.96329e+01       3.89619e-04       2.43825e+02
 10.800      2.17501e+02       3.68890e+01      -2.01142e+01       3.84535e-04       2.40038e+02
 10.900      2.17070e+02       3.70957e+01      -2.05314e+01       3.79304e-04       2.36303e+02
 11.000      2.16776e+02       3.73167e+01      -2.08539e+01       3.73904e-04       2.32624e+02
 11.100      2.16638e+02       3.75495e+01      -2.10509e+01       3.68318e-04       2.29002e+02
 11.200      2.16674e+02       3.77919e+01      -2.10915e+01       3.62529e-04       2.25440e+02
 11.300      2.16895e+02       3.80387e+01      -2.09546e+01       3.56537e-04       2.21941e+02
 11.400      2.17269e+02       3.82698e+01      -2.06739e+01       3.50411e-04       2.18502e+02
 11.500      2.17743e+02       3.84597e+01      -2.03029e+01       3.44239e-04       2.15123e+02
 11.600      2.18269e+02       3.85828e+01      -1.98955e+01       3.38106e-04       2.11801e+02
 11.700      2.18797e+02       3.86135e+01      -1.95054e+01       3.32089e-04       2.08534e+02
 11.800      2.19275e+02       3.85264e+01      -1.91861e+01       3.26259e-04       2.05322e+02
 11.900      2.19655e+02       3.82957e+01      -1.89915e+01       3.20682e-04       2.02161e+02
 12.000      2.19887e+02       3.78962e+01      -1.89747e+01       3.15416e-04       1.99051e+02
 12.100      2.19946e+02       3.73230e+01      -1.91542e+01       3.10482e-04       1.95991e+02
 12.200      2.19853e+02       3.66048e+01      -1.94905e+01       3.05838e-04       1.92977e+02
 12.300      2.19631e+02       3.57736e+01      -1.99386e+01       3.01437e-04       1.90008e+02
 12.400      2.19304e+02       3.48614e+01      -2.04535e+01       2.97240e-04       1.87083e+02
 12.500      2.18895e+02       3.39002e+01      -2.09903e+01       2.93204e-04       1.84199e+02
 12.600      2.18429e+02       3.29221e+01      -2.15041e+01       2.89294e-04       1.81356e+02
 12.700      2.17929e+02       3.19590e+01      -2.19497e+01       2.85474e-04       1.78551e+02
 12.800      2.17418e+02       3.10428e+01      -2.22823e+01       2.81708e-04       1.75783e+02
 12.900      2.16920e+02       3.02036e+01      -2.24607e+01       2.77967e-04       1.73051e+02
 13.000      2.16440e+02       2.94504e+01      -2.24810e+01       2.74242e-04       1.70355e+02
 13.100      2.15978e+02       2.87804e+01      -2.23604e+01       2.70537e-04       1.67694e+02
 13.200      2.15530e+02       2.81910e+01      -2.21163e+01       2.66855e-04       1.65069e+02
 13.300      2.15096e+02       2.76791e+01      -2.17663e+01       2.63201e-04       1.62480e+02
 13.400      2.14673e+02       2.72420e+01      -2.13277e+01       2.59577e-04       1.59928e+02
 13.500      2.14260e+02       2.68769e+01      -2.08181e+01       2.55986e-04       1.57413e+02
 13.600      2.13854e+02       2.65809e+01      -2.02549e+01       2.52433e-04       1.54934e+02
 13.700      2.13454e+02       2.63512e+01      -1.96556e+01       2.48919e-04       1.52491e+02
 13.800      2.13058e+02       2.61849e+01      -1.90375e+01       2.45448e-04       1.50086e+02
 13.900      2.12665e+02       2.60778e+01      -1.84162e+01       2.42021e-04       1.47717e+02
 14.000      2.12275e+02       2.60188e+01      -1.77971e+01       2.38635e-04       1.45384e+02
 14.100      2.11891e+02       2.59951e+01      -1.71833e+01       2.35287e-04       1.43084e+02
 14.200      2.11514e+02       2.59937e+01      -1.65778e+01       2.31971e-04       1.40817e+02
 14.300      2.11146e+02       2.60019e+01      -1.59835e+01       2.28685e-04       1.38581e+02
 14.400      2.10789e+02       2.60068e+01      -1.54035e+01       2.25426e-04       1.36375e+02
 14.500      2.10445e+02       2.59954e+01      -1.48408e+01       2.22189e-04       1.34197e+02
 14.600      2.10115e+02       2.59550e+01      -1.42983e+01       2.18972e-04       1.32047e+02
 14.700      2.09802e+02       2.58727e+01      -1.37790e+01       2.15772e-04       1.29923e+02
 14.800      2.09507e+02       2.57356e+01      -1.32860e+01       2.12586e-04       1.27825e+02
 14.900      2.09233e+02       2.55308e+01      -1.28221e+01       2.09412e-04       1.25751e+02
 15.000      2.08979e+02       2.52465e+01      -1.23903e+01       2.06246e-04       1.23701e+02
 15.100      2.08748e+02       2.48825e+01      -1.19902e+01       2.03093e-04       1.21674e+02
 15.200      2.08537e+02       2.44470e+01      -1.16195e+01       1.99956e-04       1.19674e+02
 15.300      2.08345e+02       2.39485e+01      -1.12760e+01       1.96840e-04       1.17701e+02
 15.400      2.08171e+02       2.33954e+01      -1.09572e+01       1.93751e-04       1.15756e+02
 15.500      2.08013e+02       2.27961e+01      -1.06609e+01       1.90691e-04       1.13842e+02
 15.600      2.07870e+02       2.21590e+01      -1.03846e+01       1.87665e-04       1.11958e+02
 15.700      2.07741e+02       2.14925e+01      -1.01261e+01       1.84676e-04       1.10107e+02
 15.800      2.07624e+02       2.08051e+01      -9.88305e+00       1.81729e-04       1.08288e+02
 15.900      2.07518e+02       2.01052e+01      -9.65301e+00       1.78826e-04       1.06504e+02
 16.000      2.07422e+02       1.94012e+01      -9.43369e+00       1.75970e-04       1.04755e+02
 16.100      2.07334e+02       1.87014e+01      -9.22274e+00       1.73164e-04       1.03041e+02
 16.200      2.07253e+02       1.80144e+01      -9.01783e+00       1.70410e-04       1.01363e+02
 16.300      2.07177e+02       1.73485e+01      -8.81660e+00       1.67712e-04       9.97213e+01
 16.400      2.07107e+02       1.67097e+01      -8.61746e+00       1.65069e-04       9.81165e+01
 16.500      2.07041e+02       1.60979e+01      -8.42058e+00       1.62480e-04       9.65467e+01
 16.600      2.06980e+02       1.55123e+01      -8.22641e+00       1.59941e-04       9.50100e+01
 16.700      2.06924e+02       1.49520e+01      -8.03537e+00       1.57450e-04       9.35048e+01
 16.800      2.06873e+02       1.44160e+01      -7.84793e+00       1.55004e-04       9.20295e+01
 16.900      2.06827e+02       1.39035e+01      -7.66450e+00       1.52600e-04       9.05825e+01
 17.000      2.06786e+02       1.34136e+01      -7.48554e+00       1.50237e-04       8.91625e+01
 17.100      2.06752e+02       1.29454e+01      -7.31148e+00       1.47913e-04       8.77679e+01
 17.200      2.06722e+02       1.24979e+01      -7.14276e+00       1.45624e-04       8.63976e+01
 17.300      2.06699e+02       1.20704e+01      -6.97983e+00       1.43369e-04       8.50502e+01
 17.400      2.06681e+02       1.16619e+01      -6.82312e+00       1.41146e-04       8.37245e+01
 17.500      2.06670e+02       1.12715e+01      -6.67308e+00       1.38954e-04       8.24194e+01
 17.600      2.06664e+02       1.08982e+01      -6.53014e+00       1.36790e-04       8.11337e+01
 17.700      2.06665e+02       1.05413e+01      -6.39474e+00       1.34653e-04       7.98666e+01
 17.800      2.06673e+02       1.01999e+01      -6.26733e+00       1.32541e-04       7.86169e+01
 17.900      2.06687e+02       9.87291e+00      -6.14835e+00       1.30453e-04       7.73837e+01
 18.000      2.06707e+02       9.55958e+00      -6.03823e+00       1.28388e-04       7.61661e+01
 18.100      2.06735e+02       9.25899e+00      -5.93741e+00       1.26344e-04       7.49633e+01
 18.200      2.06769e+02       8.97025e+00      -5.84634e+00       1.24319e-04       7.37746e+01
 18.300      2.06811e+02       8.69245e+00      -5.76546e+00       1.22314e-04       7.25990e+01
 18.400      2.06860e+02       8.42470e+00      -5.69521e+00       1.20326e-04       7.14360e+01
 18.500      2.06916e+02       8.16610e+00      -5.63602e+00       1.18355e-04       7.02849e+01
 18.600      2.06980e+02       7.91581e+00      -5.58824e+00       1.16399e-04       6.91450e+01
 18.700      2.07051e+02       7.67341e+00      -5.55141e+00       1.14461e-04       6.80168e+01
 18.800      2.07128e+02       7.43871e+00      -5.52464e+00       1.12541e-04       6.69009e+01
 18.900      2.07212e+02       7.21149e+00      -5.50706e+00       1.10641e-04       6.57978e+01
 19.000      2.07300e+02       6.99157e+00      -5.49776e+00       1.08762e-04       6.47082e+01
 19.100      2.07394e+02       6.77874e+00      -5.49587e+00       1.06906e-04       6.36325e+01
 19.200      2.07492e+02       6.57281e+00      -5.50050e+00       1.05073e-04       6.25713e+01
 19.300      2.07593e+02       6.37359e+00      -5.51076e+00       1.03266e-04       6.15251e+01
 19.400      2.07697e+02       6.18086e+00      -5.52577e+00       1.01485e-04       6.04941e+01
 19.500      2.07803e+02       5.99443e+00      -5.54465e+00       9.97305e-05       5.94789e+01
 19.600      2.07912e+02       5.81411e+00      -5.56649e+00       9.80040e-05       5.84797e+01
 19.700      2.08022e+02       5.63970e+00      -5.59043e+00       9.63060e-05       5.74968e+01
 19.800      2.08132e+02       5.47099e+00      -5.61557e+00       9.46374e-05       5.65305e+01
 19.900      2.08242e+02       5.30780e+00      -5.64103e+00       9.29987e-05       5.55811e+01
 20.000      2.08352e+02       5.14992e+00      -5.66591e+00       9.13904e-05       5.46487e+01
 20.100      2.08460e+02       4.99715e+00      -5.68934e+00       8.98131e-05       5.37335e+01
 20.200      2.08567e+02       4.84930e+00      -5.71043e+00       8.82672e-05       5.28357e+01
 20.300      2.08672e+02       4.70616e+00      -5.72829e+00       8.67531e-05       5.19555e+01
