# Data Source: NASA GEOS5 Near-Real-Time
# Model Time = 2010-01-02 06:00:00
# Location = [  39.7393, -104.9900 ]
# Fields = [ Z(km), T(K), U(m/s), V(m/s), R(g/cm3), P(mbar) ]
# Ground Height = 1.589
  0.000      2.83210e+02       1.73441e+00       2.30367e+00       1.26013e-03       1.02425e+03
  0.100      2.82565e+02       1.70572e+00       2.26997e+00       1.24779e-03       1.01191e+03
  0.200      2.81917e+02       1.67929e+00       2.22356e+00       1.23562e-03       9.99746e+02
  0.300      2.81270e+02       1.65281e+00       2.17742e+00       1.22358e-03       9.87727e+02
  0.400      2.80625e+02       1.62397e+00       2.14454e+00       1.21162e-03       9.75829e+02
  0.500      2.79982e+02       1.59220e+00       2.13227e+00       1.19973e-03       9.64037e+02
  0.600      2.79336e+02       1.56550e+00       2.12011e+00       1.18793e-03       9.52355e+02
  0.700      2.78678e+02       1.55489e+00       2.08462e+00       1.17628e-03       9.40795e+02
  0.800      2.77988e+02       1.57401e+00       2.04448e+00       1.16486e-03       9.29354e+02
  0.900      2.77247e+02       1.63658e+00       2.03427e+00       1.15373e-03       9.18025e+02
  1.000      2.76476e+02       1.74055e+00       2.04489e+00       1.14281e-03       9.06804e+02
  1.100      2.75727e+02       1.87134e+00       2.03502e+00       1.13187e-03       8.95688e+02
  1.200      2.75016e+02       1.97738e+00       1.96475e+00       1.12084e-03       8.84675e+02
  1.300      2.74313e+02       1.95800e+00       1.79708e+00       1.10985e-03       8.73764e+02
  1.400      2.73596e+02       1.76603e+00       1.54508e+00       1.09900e-03       8.62959e+02
  1.500      2.72878e+02       1.51678e+00       1.36417e+00       1.08823e-03       8.52262e+02
  1.600      2.72190e+02       1.34665e+00       1.40929e+00       1.07744e-03       8.41679e+02
  1.700      2.71656e+02       1.33228e+00       1.63732e+00       1.06613e-03       8.31210e+02
  1.800      2.71440e+02       1.52077e+00       1.91355e+00       1.05368e-03       8.20852e+02
  1.900      2.71562e+02       1.88805e+00       2.11931e+00       1.04007e-03       8.10612e+02
  2.000      2.71857e+02       2.31824e+00       2.15733e+00       1.02599e-03       8.00503e+02
  2.100      2.72166e+02       2.70583e+00       1.96373e+00       1.01206e-03       7.90538e+02
  2.200      2.72429e+02       3.02202e+00       1.62323e+00       9.98518e-04       7.80712e+02
  2.300      2.72613e+02       3.26111e+00       1.26240e+00       9.85450e-04       7.71017e+02
  2.400      2.72686e+02       3.44838e+00       9.61496e-01       9.72958e-04       7.61446e+02
  2.500      2.72612e+02       3.64802e+00       7.42469e-01       9.61138e-04       7.51992e+02
  2.600      2.72364e+02       3.92180e+00       6.19004e-01       9.50064e-04       7.42650e+02
  2.700      2.71961e+02       4.29389e+00       5.69709e-01       9.39638e-04       7.33413e+02
  2.800      2.71446e+02       4.77101e+00       5.56915e-01       9.29694e-04       7.24278e+02
  2.900      2.70863e+02       5.35433e+00       5.42056e-01       9.20070e-04       7.15242e+02
  3.000      2.70255e+02       6.02778e+00       4.84011e-01       9.10610e-04       7.06299e+02
  3.100      2.69666e+02       6.77175e+00       3.41424e-01       9.01163e-04       6.97447e+02
  3.200      2.69111e+02       7.55368e+00       9.53417e-02       8.91673e-04       6.88683e+02
  3.300      2.68562e+02       8.31838e+00      -2.34107e-01       8.82244e-04       6.80008e+02
  3.400      2.67983e+02       9.00961e+00      -6.23289e-01       8.72986e-04       6.71425e+02
  3.500      2.67360e+02       9.61336e+00      -1.06340e+00       8.63954e-04       6.62932e+02
  3.600      2.66695e+02       1.01680e+01      -1.56400e+00       8.55129e-04       6.54528e+02
  3.700      2.65993e+02       1.07144e+01      -2.13529e+00       8.46491e-04       6.46210e+02
  3.800      2.65265e+02       1.12702e+01      -2.77292e+00       8.38000e-04       6.37978e+02
  3.900      2.64528e+02       1.18276e+01      -3.45627e+00       8.29598e-04       6.29828e+02
  4.000      2.63801e+02       1.23772e+01      -4.16385e+00       8.21227e-04       6.21758e+02
  4.100      2.63095e+02       1.29097e+01      -4.87487e+00       8.12848e-04       6.13768e+02
  4.200      2.62420e+02       1.34157e+01      -5.56943e+00       8.04441e-04       6.05860e+02
  4.300      2.61781e+02       1.38858e+01      -6.22769e+00       7.95988e-04       5.98035e+02
  4.400      2.61182e+02       1.43096e+01      -6.83117e+00       7.87488e-04       5.90295e+02
  4.500      2.60615e+02       1.46748e+01      -7.36405e+00       7.78964e-04       5.82639e+02
  4.600      2.60073e+02       1.49690e+01      -7.81081e+00       7.70444e-04       5.75067e+02
  4.700      2.59546e+02       1.51828e+01      -8.15900e+00       7.61954e-04       5.67578e+02
  4.800      2.59026e+02       1.53210e+01      -8.40888e+00       7.53521e-04       5.60171e+02
  4.900      2.58503e+02       1.53919e+01      -8.56391e+00       7.45170e-04       5.52845e+02
  5.000      2.57969e+02       1.54045e+01      -8.62719e+00       7.36927e-04       5.45600e+02
  5.100      2.57421e+02       1.53813e+01      -8.59635e+00       7.28797e-04       5.38433e+02
  5.200      2.56860e+02       1.53548e+01      -8.46487e+00       7.20774e-04       5.31346e+02
  5.300      2.56288e+02       1.53576e+01      -8.22611e+00       7.12854e-04       5.24337e+02
  5.400      2.55706e+02       1.54130e+01      -7.88252e+00       7.05031e-04       5.17406e+02
  5.500      2.55112e+02       1.55150e+01      -7.46374e+00       6.97311e-04       5.10551e+02
  5.600      2.54503e+02       1.56528e+01      -7.00453e+00       6.89697e-04       5.03771e+02
  5.700      2.53876e+02       1.58152e+01      -6.53922e+00       6.82195e-04       4.97065e+02
  5.800      2.53229e+02       1.59991e+01      -6.08807e+00       6.74810e-04       4.90431e+02
  5.900      2.52560e+02       1.62101e+01      -5.65490e+00       6.67544e-04       4.83868e+02
  6.000      2.51867e+02       1.64543e+01      -5.24256e+00       6.60401e-04       4.77377e+02
  6.100      2.51149e+02       1.67369e+01      -4.85410e+00       6.53383e-04       4.70956e+02
  6.200      2.50406e+02       1.70512e+01      -4.49520e+00       6.46481e-04       4.64604e+02
  6.300      2.49645e+02       1.73821e+01      -4.17334e+00       6.39682e-04       4.58320e+02
  6.400      2.48869e+02       1.77143e+01      -3.89607e+00       6.32970e-04       4.52101e+02
  6.500      2.48084e+02       1.80331e+01      -3.67025e+00       6.26330e-04       4.45947e+02
  6.600      2.47293e+02       1.83334e+01      -3.49444e+00       6.19752e-04       4.39856e+02
  6.700      2.46500e+02       1.86159e+01      -3.36183e+00       6.13227e-04       4.33829e+02
  6.800      2.45708e+02       1.88817e+01      -3.26548e+00       6.06745e-04       4.27866e+02
  6.900      2.44921e+02       1.91318e+01      -3.19823e+00       6.00301e-04       4.21965e+02
  7.000      2.44139e+02       1.93698e+01      -3.14835e+00       5.93891e-04       4.16127e+02
  7.100      2.43361e+02       1.96019e+01      -3.09968e+00       5.87521e-04       4.10352e+02
  7.200      2.42585e+02       1.98341e+01      -3.03588e+00       5.81196e-04       4.04640e+02
  7.300      2.41808e+02       2.00727e+01      -2.94066e+00       5.74921e-04       3.98989e+02
  7.400      2.41031e+02       2.03229e+01      -2.80500e+00       5.68697e-04       3.93401e+02
  7.500      2.40256e+02       2.05874e+01      -2.63715e+00       5.62514e-04       3.87874e+02
  7.600      2.39489e+02       2.08689e+01      -2.44782e+00       5.56362e-04       3.82407e+02
  7.700      2.38734e+02       2.11698e+01      -2.24775e+00       5.50231e-04       3.77000e+02
  7.800      2.37995e+02       2.14933e+01      -2.04697e+00       5.44110e-04       3.71652e+02
  7.900      2.37272e+02       2.18504e+01      -1.84629e+00       5.38001e-04       3.66364e+02
  8.000      2.36564e+02       2.22579e+01      -1.63987e+00       5.31910e-04       3.61134e+02
  8.100      2.35868e+02       2.27327e+01      -1.42174e+00       5.25842e-04       3.55965e+02
  8.200      2.35183e+02       2.32918e+01      -1.18593e+00       5.19804e-04       3.50854e+02
  8.300      2.34504e+02       2.39479e+01      -9.26620e-01       5.13803e-04       3.45803e+02
  8.400      2.33829e+02       2.46871e+01      -6.38976e-01       5.07849e-04       3.40812e+02
  8.500      2.33148e+02       2.54840e+01      -3.18575e-01       5.01958e-04       3.35878e+02
  8.600      2.32456e+02       2.63135e+01       3.89983e-02       4.96142e-04       3.31001e+02
  8.700      2.31747e+02       2.71503e+01       4.38161e-01       4.90414e-04       3.26181e+02
  8.800      2.31014e+02       2.79717e+01       8.81249e-01       4.84785e-04       3.21417e+02
  8.900      2.30257e+02       2.87764e+01       1.35258e+00       4.79251e-04       3.16707e+02
  9.000      2.29480e+02       2.95739e+01       1.82732e+00       4.73803e-04       3.12051e+02
  9.100      2.28688e+02       3.03739e+01       2.28051e+00       4.68431e-04       3.07448e+02
  9.200      2.27884e+02       3.11860e+01       2.68724e+00       4.63126e-04       3.02897e+02
  9.300      2.27071e+02       3.20199e+01       3.02289e+00       4.57880e-04       2.98398e+02
  9.400      2.26254e+02       3.28812e+01       3.27971e+00       4.52683e-04       2.93949e+02
  9.500      2.25435e+02       3.37705e+01       3.47437e+00       4.47529e-04       2.89551e+02
  9.600      2.24619e+02       3.46875e+01       3.62548e+00       4.42411e-04       2.85203e+02
  9.700      2.23809e+02       3.56322e+01       3.75167e+00       4.37321e-04       2.80906e+02
  9.800      2.23009e+02       3.66045e+01       3.87155e+00       4.32254e-04       2.76658e+02
  9.900      2.22221e+02       3.76037e+01       4.00297e+00       4.27202e-04       2.72459e+02
 10.000      2.21447e+02       3.86214e+01       4.15305e+00       4.22169e-04       2.68310e+02
 10.100      2.20682e+02       3.96432e+01       4.32071e+00       4.17158e-04       2.64210e+02
 10.200      2.19924e+02       4.06545e+01       4.50467e+00       4.12177e-04       2.60159e+02
 10.300      2.19170e+02       4.16409e+01       4.70368e+00       4.07231e-04       2.56156e+02
 10.400      2.18418e+02       4.25877e+01       4.91646e+00       4.02326e-04       2.52202e+02
 10.500      2.17663e+02       4.34810e+01       5.14158e+00       3.97468e-04       2.48295e+02
 10.600      2.16903e+02       4.43184e+01       5.37259e+00       3.92662e-04       2.44437e+02
 10.700      2.16134e+02       4.51120e+01       5.59713e+00       3.87916e-04       2.40625e+02
 10.800      2.15349e+02       4.58745e+01       5.80252e+00       3.83236e-04       2.36860e+02
 10.900      2.14546e+02       4.66185e+01       5.97606e+00       3.78629e-04       2.33139e+02
 11.000      2.13719e+02       4.73569e+01       6.10504e+00       3.74101e-04       2.29463e+02
 11.100      2.12863e+02       4.81024e+01       6.17679e+00       3.69658e-04       2.25830e+02
 11.200      2.11977e+02       4.88634e+01       6.17875e+00       3.65302e-04       2.22241e+02
 11.300      2.11077e+02       4.96134e+01       6.09950e+00       3.61005e-04       2.18694e+02
 11.400      2.10189e+02       5.03086e+01       5.92820e+00       3.56724e-04       2.15190e+02
 11.500      2.09337e+02       5.09053e+01       5.65399e+00       3.52416e-04       2.11730e+02
 11.600      2.08547e+02       5.13598e+01       5.26604e+00       3.48041e-04       2.08312e+02
 11.700      2.07844e+02       5.16282e+01       4.75350e+00       3.43560e-04       2.04938e+02
 11.800      2.07255e+02       5.16667e+01       4.10551e+00       3.38937e-04       2.01607e+02
 11.900      2.06804e+02       5.14335e+01       3.31265e+00       3.34138e-04       1.98320e+02
 12.000      2.06498e+02       5.09281e+01       2.39611e+00       3.29161e-04       1.95077e+02
 12.100      2.06328e+02       5.01902e+01       1.40675e+00       3.24035e-04       1.91881e+02
 12.200      2.06284e+02       4.92611e+01       3.96640e-01       3.18788e-04       1.88734e+02
 12.300      2.06356e+02       4.81819e+01      -5.82189e-01       3.13449e-04       1.85637e+02
 12.400      2.06534e+02       4.69941e+01      -1.47766e+00       3.08044e-04       1.82593e+02
 12.500      2.06808e+02       4.57388e+01      -2.23772e+00       3.02598e-04       1.79604e+02
 12.600      2.07168e+02       4.44574e+01      -2.81031e+00       2.97138e-04       1.76670e+02
 12.700      2.07605e+02       4.31907e+01      -3.14457e+00       2.91684e-04       1.73793e+02
 12.800      2.08105e+02       4.19658e+01      -3.23102e+00       2.86261e-04       1.70973e+02
 12.900      2.08656e+02       4.07930e+01      -3.11086e+00       2.80889e-04       1.68208e+02
 13.000      2.09242e+02       3.96816e+01      -2.82840e+00       2.75587e-04       1.65497e+02
 13.100      2.09848e+02       3.86409e+01      -2.42796e+00       2.70375e-04       1.62837e+02
 13.200      2.10461e+02       3.76799e+01      -1.95385e+00       2.65268e-04       1.60228e+02
 13.300      2.11065e+02       3.68081e+01      -1.45037e+00       2.60282e-04       1.57668e+02
 13.400      2.11646e+02       3.60346e+01      -9.61849e-01       2.55430e-04       1.55154e+02
 13.500      2.12190e+02       3.53687e+01      -5.32587e-01       2.50724e-04       1.52687e+02
 13.600      2.12681e+02       3.48196e+01      -2.06901e-01       2.46176e-04       1.50264e+02
 13.700      2.13108e+02       3.43933e+01      -2.15466e-02       2.41792e-04       1.47885e+02
 13.800      2.13470e+02       3.40777e+01       2.89058e-02       2.37565e-04       1.45547e+02
 13.900      2.13772e+02       3.38546e+01      -3.54944e-02       2.33485e-04       1.43249e+02
 14.000      2.14017e+02       3.37054e+01      -1.94683e-01       2.29539e-04       1.40989e+02
 14.100      2.14208e+02       3.36119e+01      -4.28593e-01       2.25719e-04       1.38767e+02
 14.200      2.14351e+02       3.35558e+01      -7.17157e-01       2.22014e-04       1.36580e+02
 14.300      2.14449e+02       3.35185e+01      -1.04031e+00       2.18415e-04       1.34428e+02
 14.400      2.14506e+02       3.34818e+01      -1.37799e+00       2.14915e-04       1.32309e+02
 14.500      2.14526e+02       3.34273e+01      -1.71013e+00       2.11505e-04       1.30222e+02
 14.600      2.14513e+02       3.33367e+01      -2.01667e+00       2.08178e-04       1.28165e+02
 14.700      2.14471e+02       3.31915e+01      -2.27753e+00       2.04927e-04       1.26139e+02
 14.800      2.14403e+02       3.29739e+01      -2.47302e+00       2.01744e-04       1.24141e+02
 14.900      2.14314e+02       3.26773e+01      -2.59547e+00       1.98626e-04       1.22171e+02
 15.000      2.14204e+02       3.23093e+01      -2.65153e+00       1.95571e-04       1.20230e+02
 15.100      2.14076e+02       3.18783e+01      -2.64874e+00       1.92576e-04       1.18319e+02
 15.200      2.13932e+02       3.13926e+01      -2.59462e+00       1.89640e-04       1.16436e+02
 15.300      2.13774e+02       3.08605e+01      -2.49667e+00       1.86761e-04       1.14584e+02
 15.400      2.13604e+02       3.02903e+01      -2.36242e+00       1.83938e-04       1.12762e+02
 15.500      2.13423e+02       2.96904e+01      -2.19939e+00       1.81169e-04       1.10970e+02
 15.600      2.13234e+02       2.90691e+01      -2.01510e+00       1.78452e-04       1.09209e+02
 15.700      2.13038e+02       2.84348e+01      -1.81707e+00       1.75786e-04       1.07479e+02
 15.800      2.12838e+02       2.77957e+01      -1.61281e+00       1.73169e-04       1.05779e+02
 15.900      2.12636e+02       2.71602e+01      -1.40985e+00       1.70600e-04       1.04111e+02
 16.000      2.12433e+02       2.65367e+01      -1.21570e+00       1.68077e-04       1.02474e+02
 16.100      2.12231e+02       2.59334e+01      -1.03788e+00       1.65600e-04       1.00868e+02
 16.200      2.12033e+02       2.53586e+01      -8.83771e-01       1.63167e-04       9.92928e+01
 16.300      2.11840e+02       2.48160e+01      -7.56824e-01       1.60776e-04       9.77484e+01
 16.400      2.11651e+02       2.43043e+01      -6.55991e-01       1.58425e-04       9.62332e+01
 16.500      2.11468e+02       2.38218e+01      -5.79993e-01       1.56111e-04       9.47459e+01
 16.600      2.11291e+02       2.33671e+01      -5.27551e-01       1.53833e-04       9.32852e+01
 16.700      2.11120e+02       2.29386e+01      -4.97383e-01       1.51589e-04       9.18499e+01
 16.800      2.10956e+02       2.25345e+01      -4.88209e-01       1.49376e-04       9.04390e+01
 16.900      2.10799e+02       2.21535e+01      -4.98747e-01       1.47194e-04       8.90513e+01
 17.000      2.10650e+02       2.17939e+01      -5.27719e-01       1.45039e-04       8.76857e+01
 17.100      2.10508e+02       2.14541e+01      -5.73842e-01       1.42912e-04       8.63413e+01
 17.200      2.10375e+02       2.11325e+01      -6.35836e-01       1.40809e-04       8.50172e+01
 17.300      2.10251e+02       2.08276e+01      -7.12420e-01       1.38730e-04       8.37124e+01
 17.400      2.10135e+02       2.05377e+01      -8.02315e-01       1.36673e-04       8.24260e+01
 17.500      2.10029e+02       2.02614e+01      -9.04239e-01       1.34638e-04       8.11573e+01
 17.600      2.09933e+02       1.99970e+01      -1.01691e+00       1.32621e-04       7.99054e+01
 17.700      2.09847e+02       1.97429e+01      -1.13905e+00       1.30624e-04       7.86696e+01
 17.800      2.09772e+02       1.94976e+01      -1.26938e+00       1.28643e-04       7.74493e+01
 17.900      2.09708e+02       1.92594e+01      -1.40662e+00       1.26679e-04       7.62436e+01
 18.000      2.09656e+02       1.90268e+01      -1.54948e+00       1.24731e-04       7.50520e+01
 18.100      2.09615e+02       1.87983e+01      -1.69669e+00       1.22797e-04       7.38739e+01
 18.200      2.09587e+02       1.85722e+01      -1.84696e+00       1.20876e-04       7.27086e+01
 18.300      2.09571e+02       1.83469e+01      -1.99901e+00       1.18968e-04       7.15557e+01
 18.400      2.09569e+02       1.81210e+01      -2.15157e+00       1.17072e-04       7.04146e+01
 18.500      2.09580e+02       1.78928e+01      -2.30340e+00       1.15188e-04       6.92850e+01
 18.600      2.09604e+02       1.76619e+01      -2.45379e+00       1.13316e-04       6.81669e+01
 18.700      2.09640e+02       1.74289e+01      -2.60242e+00       1.11459e-04       6.70610e+01
 18.800      2.09688e+02       1.71939e+01      -2.74899e+00       1.09617e-04       6.59679e+01
 18.900      2.09746e+02       1.69575e+01      -2.89318e+00       1.07793e-04       6.48881e+01
 19.000      2.09813e+02       1.67200e+01      -3.03467e+00       1.05988e-04       6.38221e+01
 19.100      2.09889e+02       1.64818e+01      -3.17317e+00       1.04204e-04       6.27704e+01
 19.200      2.09972e+02       1.62433e+01      -3.30836e+00       1.02441e-04       6.17333e+01
 19.300      2.10063e+02       1.60049e+01      -3.43991e+00       1.00702e-04       6.07114e+01
 19.400      2.10159e+02       1.57669e+01      -3.56753e+00       9.89875e-05       5.97048e+01
 19.500      2.10260e+02       1.55298e+01      -3.69090e+00       9.72980e-05       5.87140e+01
 19.600      2.10364e+02       1.52939e+01      -3.80972e+00       9.56348e-05       5.77391e+01
 19.700      2.10472e+02       1.50596e+01      -3.92365e+00       9.39989e-05       5.67806e+01
 19.800      2.10583e+02       1.48274e+01      -4.03241e+00       9.23909e-05       5.58385e+01
 19.900      2.10694e+02       1.45975e+01      -4.13567e+00       9.08117e-05       5.49131e+01
 20.000      2.10806e+02       1.43705e+01      -4.23312e+00       8.92618e-05       5.40045e+01
 20.100      2.10917e+02       1.41466e+01      -4.32445e+00       8.77419e-05       5.31129e+01
 20.200      2.11027e+02       1.39263e+01      -4.40935e+00       8.62523e-05       5.22384e+01
 20.300      2.11134e+02       1.37099e+01      -4.48750e+00       8.47937e-05       5.13811e+01
