# Data Source: NASA GEOS5 Near-Real-Time
# Model Time = 2010-01-01 18:00:00
# Location = [  39.7393, -104.9900 ]
# Fields = [ Z(km), T(K), U(m/s), V(m/s), R(g/cm3), P(mbar) ]
# Ground Height = 1.589
  0.000      2.86098e+02      -1.66772e+00       1.74224e+00       1.24720e-03       1.02407e+03
  0.100      2.85448e+02      -1.66993e+00       1.71480e+00       1.23513e-03       1.01186e+03
  0.200      2.84796e+02      -1.67762e+00       1.66768e+00       1.22322e-03       9.99817e+02
  0.300      2.84144e+02      -1.68523e+00       1.62087e+00       1.21143e-03       9.87913e+02
  0.400      2.83494e+02      -1.68718e+00       1.59435e+00       1.19973e-03       9.76133e+02
  0.500      2.82852e+02      -1.68105e+00       1.60025e+00       1.18808e-03       9.64461e+02
  0.600      2.82225e+02      -1.68133e+00       1.60883e+00       1.17644e-03       9.52899e+02
  0.700      2.81624e+02      -1.70578e+00       1.58147e+00       1.16479e-03       9.41452e+02
  0.800      2.81026e+02      -1.75154e+00       1.52457e+00       1.15322e-03       9.30122e+02
  0.900      2.80398e+02      -1.80541e+00       1.46660e+00       1.14186e-03       9.18904e+02
  1.000      2.79739e+02      -1.86039e+00       1.41285e+00       1.13072e-03       9.07797e+02
  1.100      2.79079e+02      -1.91508e+00       1.34815e+00       1.11966e-03       8.96798e+02
  1.200      2.78436e+02      -1.96811e+00       1.28574e+00       1.10862e-03       8.85907e+02
  1.300      2.77808e+02      -2.01791e+00       1.28929e+00       1.09760e-03       8.75125e+02
  1.400      2.77197e+02      -2.05694e+00       1.39783e+00       1.08660e-03       8.64452e+02
  1.500      2.76624e+02      -2.05312e+00       1.52763e+00       1.07554e-03       8.53887e+02
  1.600      2.76116e+02      -1.96685e+00       1.57021e+00       1.06432e-03       8.43429e+02
  1.700      2.75684e+02      -1.74322e+00       1.51149e+00       1.05292e-03       8.33079e+02
  1.800      2.75325e+02      -1.31661e+00       1.40446e+00       1.04133e-03       8.22841e+02
  1.900      2.75019e+02      -6.64375e-01       1.28787e+00       1.02966e-03       8.12718e+02
  2.000      2.74702e+02       1.42878e-01       1.16650e+00       1.01816e-03       8.02707e+02
  2.100      2.74309e+02       1.02468e+00       1.03605e+00       1.00704e-03       7.92808e+02
  2.200      2.73850e+02       1.92195e+00       8.48189e-01       9.96269e-04       7.83016e+02
  2.300      2.73370e+02       2.78733e+00       5.30613e-01       9.85671e-04       7.73330e+02
  2.400      2.72898e+02       3.57815e+00       4.62144e-02       9.75140e-04       7.63747e+02
  2.500      2.72418e+02       4.26276e+00      -5.56840e-01       9.64733e-04       7.54266e+02
  2.600      2.71908e+02       4.81412e+00      -1.21893e+00       9.54524e-04       7.44886e+02
  2.700      2.71372e+02       5.26110e+00      -1.90121e+00       9.44493e-04       7.35607e+02
  2.800      2.70838e+02       5.68208e+00      -2.58321e+00       9.34544e-04       7.26424e+02
  2.900      2.70328e+02       6.14938e+00      -3.24861e+00       9.24594e-04       7.17339e+02
  3.000      2.69841e+02       6.68512e+00      -3.90361e+00       9.14653e-04       7.08349e+02
  3.100      2.69365e+02       7.29157e+00      -4.56332e+00       9.04768e-04       6.99456e+02
  3.200      2.68892e+02       7.96523e+00      -5.23882e+00       8.94960e-04       6.90660e+02
  3.300      2.68443e+02       8.68357e+00      -5.92772e+00       8.85166e-04       6.81960e+02
  3.400      2.68041e+02       9.42015e+00      -6.62480e+00       8.75312e-04       6.73357e+02
  3.500      2.67691e+02       1.01595e+01      -7.32410e+00       8.65382e-04       6.64850e+02
  3.600      2.67360e+02       1.09111e+01      -8.01790e+00       8.55490e-04       6.56437e+02
  3.700      2.67008e+02       1.16878e+01      -8.69826e+00       8.45761e-04       6.48119e+02
  3.800      2.66611e+02       1.24924e+01      -9.35844e+00       8.36274e-04       6.39895e+02
  3.900      2.66170e+02       1.33059e+01      -9.99420e+00       8.27014e-04       6.31762e+02
  4.000      2.65692e+02       1.41070e+01      -1.06016e+01       8.17955e-04       6.23721e+02
  4.100      2.65182e+02       1.48739e+01      -1.11761e+01       8.09079e-04       6.15768e+02
  4.200      2.64641e+02       1.55846e+01      -1.17119e+01       8.00379e-04       6.07902e+02
  4.300      2.64067e+02       1.62170e+01      -1.22027e+01       7.91850e-04       6.00121e+02
  4.400      2.63462e+02       1.67568e+01      -1.26431e+01       7.83487e-04       5.92423e+02
  4.500      2.62834e+02       1.72219e+01      -1.30305e+01       7.75262e-04       5.84806e+02
  4.600      2.62190e+02       1.76390e+01      -1.33630e+01       7.67151e-04       5.77270e+02
  4.700      2.61539e+02       1.80333e+01      -1.36391e+01       7.59126e-04       5.69812e+02
  4.800      2.60887e+02       1.84167e+01      -1.38606e+01       7.51165e-04       5.62432e+02
  4.900      2.60241e+02       1.87931e+01      -1.40311e+01       7.43251e-04       5.55129e+02
  5.000      2.59607e+02       1.91664e+01      -1.41544e+01       7.35367e-04       5.47901e+02
  5.100      2.58987e+02       1.95403e+01      -1.42314e+01       7.27505e-04       5.40750e+02
  5.200      2.58379e+02       1.99188e+01      -1.42578e+01       7.19677e-04       5.33675e+02
  5.300      2.57778e+02       2.03059e+01      -1.42293e+01       7.11896e-04       5.26676e+02
  5.400      2.57180e+02       2.07046e+01      -1.41424e+01       7.04173e-04       5.19754e+02
  5.500      2.56583e+02       2.11100e+01      -1.40033e+01       6.96516e-04       5.12908e+02
  5.600      2.55983e+02       2.15133e+01      -1.38229e+01       6.88931e-04       5.06138e+02
  5.700      2.55379e+02       2.19056e+01      -1.36121e+01       6.81425e-04       4.99441e+02
  5.800      2.54766e+02       2.22808e+01      -1.33795e+01       6.74003e-04       4.92817e+02
  5.900      2.54142e+02       2.26401e+01      -1.31248e+01       6.66675e-04       4.86265e+02
  6.000      2.53503e+02       2.29866e+01      -1.28466e+01       6.59449e-04       4.79783e+02
  6.100      2.52843e+02       2.33232e+01      -1.25431e+01       6.52333e-04       4.73371e+02
  6.200      2.52162e+02       2.36498e+01      -1.22187e+01       6.45329e-04       4.67028e+02
  6.300      2.51465e+02       2.39602e+01      -1.18883e+01       6.38423e-04       4.60752e+02
  6.400      2.50756e+02       2.42477e+01      -1.15684e+01       6.31601e-04       4.54545e+02
  6.500      2.50042e+02       2.45055e+01      -1.12751e+01       6.24848e-04       4.48404e+02
  6.600      2.49325e+02       2.47298e+01      -1.10171e+01       6.18156e-04       4.42330e+02
  6.700      2.48604e+02       2.49220e+01      -1.07880e+01       6.11529e-04       4.36322e+02
  6.800      2.47875e+02       2.50840e+01      -1.05799e+01       6.04971e-04       4.30377e+02
  6.900      2.47136e+02       2.52179e+01      -1.03850e+01       5.98486e-04       4.24494e+02
  7.000      2.46386e+02       2.53253e+01      -1.01989e+01       5.92076e-04       4.18673e+02
  7.100      2.45624e+02       2.54061e+01      -1.00274e+01       5.85742e-04       4.12913e+02
  7.200      2.44850e+02       2.54602e+01      -9.87887e+00       5.79484e-04       4.07215e+02
  7.300      2.44064e+02       2.54874e+01      -9.76122e+00       5.73301e-04       4.01578e+02
  7.400      2.43267e+02       2.54881e+01      -9.68192e+00       5.67193e-04       3.96001e+02
  7.500      2.42458e+02       2.54704e+01      -9.64200e+00       5.61160e-04       3.90486e+02
  7.600      2.41636e+02       2.54463e+01      -9.63895e+00       5.55202e-04       3.85030e+02
  7.700      2.40798e+02       2.54279e+01      -9.67021e+00       5.49322e-04       3.79631e+02
  7.800      2.39946e+02       2.54275e+01      -9.73319e+00       5.43518e-04       3.74290e+02
  7.900      2.39077e+02       2.54603e+01      -9.82494e+00       5.37790e-04       3.69006e+02
  8.000      2.38199e+02       2.55505e+01      -9.94135e+00       5.32125e-04       3.63777e+02
  8.100      2.37316e+02       2.57233e+01      -1.00782e+01       5.26509e-04       3.58603e+02
  8.200      2.36433e+02       2.60042e+01      -1.02311e+01       5.20931e-04       3.53484e+02
  8.300      2.35556e+02       2.64184e+01      -1.03960e+01       5.15378e-04       3.48419e+02
  8.400      2.34689e+02       2.69656e+01      -1.05673e+01       5.09843e-04       3.43409e+02
  8.500      2.33830e+02       2.76042e+01      -1.07379e+01       5.04330e-04       3.38452e+02
  8.600      2.32978e+02       2.82890e+01      -1.09006e+01       4.98842e-04       3.33549e+02
  8.700      2.32132e+02       2.89745e+01      -1.10480e+01       4.93382e-04       3.28701e+02
  8.800      2.31291e+02       2.96155e+01      -1.11727e+01       4.87955e-04       3.23907e+02
  8.900      2.30452e+02       3.01805e+01      -1.12725e+01       4.82564e-04       3.19167e+02
  9.000      2.29611e+02       3.06663e+01      -1.13551e+01       4.77221e-04       3.14480e+02
  9.100      2.28761e+02       3.10733e+01      -1.14293e+01       4.71933e-04       3.09845e+02
  9.200      2.27899e+02       3.14018e+01      -1.15043e+01       4.66710e-04       3.05261e+02
  9.300      2.27017e+02       3.16521e+01      -1.15888e+01       4.61562e-04       3.00726e+02
  9.400      2.26113e+02       3.18252e+01      -1.16898e+01       4.56494e-04       2.96239e+02
  9.500      2.25189e+02       3.19257e+01      -1.17995e+01       4.51500e-04       2.91801e+02
  9.600      2.24251e+02       3.19597e+01      -1.19043e+01       4.46569e-04       2.87411e+02
  9.700      2.23304e+02       3.19335e+01      -1.19907e+01       4.41688e-04       2.83070e+02
  9.800      2.22355e+02       3.18532e+01      -1.20452e+01       4.36846e-04       2.78777e+02
  9.900      2.21409e+02       3.17250e+01      -1.20543e+01       4.32032e-04       2.74532e+02
 10.000      2.20470e+02       3.15556e+01      -1.20156e+01       4.27238e-04       2.70335e+02
 10.100      2.19541e+02       3.13541e+01      -1.19585e+01       4.22460e-04       2.66185e+02
 10.200      2.18623e+02       3.11295e+01      -1.19184e+01       4.17696e-04       2.62083e+02
 10.300      2.17718e+02       3.08910e+01      -1.19304e+01       4.12944e-04       2.58028e+02
 10.400      2.16825e+02       3.06479e+01      -1.20297e+01       4.08200e-04       2.54019e+02
 10.500      2.15948e+02       3.04093e+01      -1.22517e+01       4.03465e-04       2.50056e+02
 10.600      2.15087e+02       3.01830e+01      -1.26155e+01       3.98735e-04       2.46138e+02
 10.700      2.14240e+02       2.99707e+01      -1.30735e+01       3.94013e-04       2.42267e+02
 10.800      2.13409e+02       2.97727e+01      -1.35608e+01       3.89303e-04       2.38441e+02
 10.900      2.12591e+02       2.95890e+01      -1.40125e+01       3.84606e-04       2.34662e+02
 11.000      2.11786e+02       2.94199e+01      -1.43634e+01       3.79925e-04       2.30928e+02
 11.100      2.10993e+02       2.92656e+01      -1.45486e+01       3.75263e-04       2.27241e+02
 11.200      2.10212e+02       2.91262e+01      -1.45044e+01       3.70622e-04       2.23600e+02
 11.300      2.09450e+02       2.90036e+01      -1.42151e+01       3.65991e-04       2.20005e+02
 11.400      2.08724e+02       2.89014e+01      -1.37307e+01       3.61342e-04       2.16457e+02
 11.500      2.08051e+02       2.88237e+01      -1.31055e+01       3.56646e-04       2.12955e+02
 11.600      2.07450e+02       2.87744e+01      -1.23938e+01       3.51875e-04       2.09500e+02
 11.700      2.06938e+02       2.87573e+01      -1.16500e+01       3.47005e-04       2.06091e+02
 11.800      2.06534e+02       2.87765e+01      -1.09285e+01       3.42011e-04       2.02728e+02
 11.900      2.06255e+02       2.88358e+01      -1.02836e+01       3.36871e-04       1.99412e+02
 12.000      2.06112e+02       2.89353e+01      -9.75309e+00       3.31578e-04       1.96142e+02
 12.100      2.06094e+02       2.90660e+01      -9.33549e+00       3.26161e-04       1.92921e+02
 12.200      2.06190e+02       2.92173e+01      -9.02367e+00       3.20653e-04       1.89751e+02
 12.300      2.06386e+02       2.93789e+01      -8.81050e+00       3.15085e-04       1.86634e+02
 12.400      2.06672e+02       2.95404e+01      -8.68883e+00       3.09485e-04       1.83571e+02
 12.500      2.07034e+02       2.96914e+01      -8.65153e+00       3.03882e-04       1.80563e+02
 12.600      2.07461e+02       2.98215e+01      -8.69145e+00       2.98303e-04       1.77613e+02
 12.700      2.07940e+02       2.99202e+01      -8.80147e+00       2.92770e-04       1.74721e+02
 12.800      2.08458e+02       2.99804e+01      -8.97369e+00       2.87307e-04       1.71889e+02
 12.900      2.09003e+02       3.00044e+01      -9.19794e+00       2.81930e-04       1.69112e+02
 13.000      2.09560e+02       2.99966e+01      -9.46364e+00       2.76656e-04       1.66391e+02
 13.100      2.10116e+02       2.99612e+01      -9.76019e+00       2.71497e-04       1.63722e+02
 13.200      2.10658e+02       2.99024e+01      -1.00770e+01       2.66467e-04       1.61103e+02
 13.300      2.11171e+02       2.98244e+01      -1.04035e+01       2.61577e-04       1.58532e+02
 13.400      2.11643e+02       2.97315e+01      -1.07291e+01       2.56838e-04       1.56007e+02
 13.500      2.12059e+02       2.96279e+01      -1.10432e+01       2.52258e-04       1.53526e+02
 13.600      2.12406e+02       2.95179e+01      -1.13353e+01       2.47846e-04       1.51089e+02
 13.700      2.12672e+02       2.94055e+01      -1.15950e+01       2.43610e-04       1.48692e+02
 13.800      2.12854e+02       2.92934e+01      -1.18186e+01       2.39542e-04       1.46334e+02
 13.900      2.12962e+02       2.91829e+01      -1.20079e+01       2.35625e-04       1.44014e+02
 14.000      2.13006e+02       2.90751e+01      -1.21650e+01       2.31841e-04       1.41731e+02
 14.100      2.12995e+02       2.89713e+01      -1.22919e+01       2.28175e-04       1.39483e+02
 14.200      2.12939e+02       2.88725e+01      -1.23907e+01       2.24613e-04       1.37269e+02
 14.300      2.12847e+02       2.87802e+01      -1.24634e+01       2.21140e-04       1.35088e+02
 14.400      2.12728e+02       2.86953e+01      -1.25120e+01       2.17742e-04       1.32938e+02
 14.500      2.12592e+02       2.86192e+01      -1.25387e+01       2.14407e-04       1.30819e+02
 14.600      2.12450e+02       2.85530e+01      -1.25455e+01       2.11124e-04       1.28729e+02
 14.700      2.12309e+02       2.84980e+01      -1.25344e+01       2.07881e-04       1.26668e+02
 14.800      2.12180e+02       2.84553e+01      -1.25075e+01       2.04668e-04       1.24634e+02
 14.900      2.12069e+02       2.84248e+01      -1.24663e+01       2.01478e-04       1.22627e+02
 15.000      2.11975e+02       2.84030e+01      -1.24115e+01       1.98315e-04       1.20649e+02
 15.100      2.11897e+02       2.83861e+01      -1.23432e+01       1.95181e-04       1.18699e+02
 15.200      2.11833e+02       2.83703e+01      -1.22620e+01       1.92082e-04       1.16779e+02
 15.300      2.11781e+02       2.83518e+01      -1.21682e+01       1.89020e-04       1.14889e+02
 15.400      2.11740e+02       2.83266e+01      -1.20621e+01       1.85999e-04       1.13030e+02
 15.500      2.11707e+02       2.82910e+01      -1.19441e+01       1.83021e-04       1.11203e+02
 15.600      2.11681e+02       2.82410e+01      -1.18145e+01       1.80089e-04       1.09409e+02
 15.700      2.11660e+02       2.81729e+01      -1.16738e+01       1.77207e-04       1.07647e+02
 15.800      2.11642e+02       2.80828e+01      -1.15223e+01       1.74376e-04       1.05918e+02
 15.900      2.11626e+02       2.79668e+01      -1.13603e+01       1.71598e-04       1.04223e+02
 16.000      2.11610e+02       2.78211e+01      -1.11882e+01       1.68877e-04       1.02562e+02
 16.100      2.11591e+02       2.76419e+01      -1.10064e+01       1.66212e-04       1.00935e+02
 16.200      2.11569e+02       2.74253e+01      -1.08153e+01       1.63607e-04       9.93427e+01
 16.300      2.11543e+02       2.71706e+01      -1.06154e+01       1.61060e-04       9.77840e+01
 16.400      2.11512e+02       2.68806e+01      -1.04077e+01       1.58568e-04       9.62574e+01
 16.500      2.11478e+02       2.65582e+01      -1.01930e+01       1.56129e-04       9.47614e+01
 16.600      2.11439e+02       2.62065e+01      -9.97219e+00       1.53740e-04       9.32944e+01
 16.700      2.11398e+02       2.58287e+01      -9.74627e+00       1.51398e-04       9.18550e+01
 16.800      2.11353e+02       2.54276e+01      -9.51611e+00       1.49100e-04       9.04418e+01
 16.900      2.11306e+02       2.50064e+01      -9.28260e+00       1.46844e-04       8.90533e+01
 17.000      2.11257e+02       2.45680e+01      -9.04665e+00       1.44627e-04       8.76885e+01
 17.100      2.11205e+02       2.41156e+01      -8.80917e+00       1.42448e-04       8.63460e+01
 17.200      2.11152e+02       2.36521e+01      -8.57106e+00       1.40303e-04       8.50246e+01
 17.300      2.11097e+02       2.31806e+01      -8.33323e+00       1.38192e-04       8.37235e+01
 17.400      2.11041e+02       2.27042e+01      -8.09657e+00       1.36112e-04       8.24413e+01
 17.500      2.10985e+02       2.22258e+01      -7.86199e+00       1.34060e-04       8.11772e+01
 17.600      2.10928e+02       2.17486e+01      -7.63040e+00       1.32037e-04       7.99301e+01
 17.700      2.10871e+02       2.12755e+01      -7.40270e+00       1.30039e-04       7.86993e+01
 17.800      2.10814e+02       2.08096e+01      -7.17981e+00       1.28065e-04       7.74838e+01
 17.900      2.10758e+02       2.03539e+01      -6.96261e+00       1.26113e-04       7.62828e+01
 18.000      2.10703e+02       1.99114e+01      -6.75201e+00       1.24183e-04       7.50955e+01
 18.100      2.10648e+02       1.94853e+01      -6.54892e+00       1.22273e-04       7.39213e+01
 18.200      2.10596e+02       1.90785e+01      -6.35425e+00       1.20381e-04       7.27594e+01
 18.300      2.10545e+02       1.86941e+01      -6.16890e+00       1.18506e-04       7.16091e+01
 18.400      2.10496e+02       1.83352e+01      -5.99377e+00       1.16648e-04       7.04699e+01
 18.500      2.10450e+02       1.80045e+01      -5.82972e+00       1.14805e-04       6.93413e+01
 18.600      2.10407e+02       1.77026e+01      -5.67701e+00       1.12977e-04       6.82233e+01
 18.700      2.10366e+02       1.74279e+01      -5.53540e+00       1.11166e-04       6.71167e+01
 18.800      2.10328e+02       1.71790e+01      -5.40461e+00       1.09373e-04       6.60223e+01
 18.900      2.10293e+02       1.69542e+01      -5.28439e+00       1.07599e-04       6.49404e+01
 19.000      2.10261e+02       1.67521e+01      -5.17449e+00       1.05845e-04       6.38719e+01
 19.100      2.10232e+02       1.65710e+01      -5.07464e+00       1.04111e-04       6.28171e+01
 19.200      2.10207e+02       1.64094e+01      -4.98458e+00       1.02399e-04       6.17766e+01
 19.300      2.10185e+02       1.62658e+01      -4.90405e+00       1.00709e-04       6.07509e+01
 19.400      2.10166e+02       1.61387e+01      -4.83279e+00       9.90428e-05       5.97403e+01
 19.500      2.10151e+02       1.60264e+01      -4.77055e+00       9.74000e-05       5.87452e+01
 19.600      2.10139e+02       1.59275e+01      -4.71706e+00       9.57816e-05       5.77659e+01
 19.700      2.10132e+02       1.58403e+01      -4.67206e+00       9.41882e-05       5.68028e+01
 19.800      2.10128e+02       1.57634e+01      -4.63530e+00       9.26201e-05       5.58562e+01
 19.900      2.10128e+02       1.56951e+01      -4.60651e+00       9.10779e-05       5.49262e+01
 20.000      2.10132e+02       1.56340e+01      -4.58544e+00       8.95620e-05       5.40131e+01
 20.100      2.10141e+02       1.55785e+01      -4.57182e+00       8.80727e-05       5.31170e+01
 20.200      2.10154e+02       1.55270e+01      -4.56539e+00       8.66103e-05       5.22382e+01
 20.300      2.10171e+02       1.54780e+01      -4.56590e+00       8.51751e-05       5.13767e+01
