# Data Source: NASA GEOS5 Near-Real-Time
# Model Time = 2010-01-02 00:00:00
# Location = [  39.7393, -104.9900 ]
# Fields = [ Z(km), T(K), U(m/s), V(m/s), R(g/cm3), P(mbar) ]
# Ground Height = 1.589
  0.000      2.83684e+02       3.36524e+00       8.76316e-01       1.25976e-03       1.02566e+03
  0.100      2.83036e+02       3.32319e+00       8.58941e-01       1.24745e-03       1.01332e+03
  0.200      2.82371e+02       3.28668e+00       8.18544e-01       1.23536e-03       1.00115e+03
  0.300      2.81706e+02       3.25066e+00       7.76153e-01       1.22341e-03       9.89120e+02
  0.400      2.81053e+02       3.21005e+00       7.52795e-01       1.21150e-03       9.77222e+02
  0.500      2.80424e+02       3.16296e+00       7.65376e-01       1.19957e-03       9.65437e+02
  0.600      2.79794e+02       3.13000e+00       8.01498e-01       1.18774e-03       9.53763e+02
  0.700      2.79132e+02       3.13682e+00       8.37024e-01       1.17612e-03       9.42203e+02
  0.800      2.78438e+02       3.15589e+00       8.58478e-01       1.16473e-03       9.30757e+02
  0.900      2.77735e+02       3.12890e+00       8.59146e-01       1.15346e-03       9.19422e+02
  1.000      2.77023e+02       3.06255e+00       8.32908e-01       1.14230e-03       9.08197e+02
  1.100      2.76284e+02       3.02984e+00       7.74250e-01       1.13134e-03       8.97079e+02
  1.200      2.75521e+02       3.06958e+00       6.90250e-01       1.12055e-03       8.86068e+02
  1.300      2.74783e+02       3.15103e+00       6.11498e-01       1.10973e-03       8.75165e+02
  1.400      2.74124e+02       3.23581e+00       5.71168e-01       1.09868e-03       8.64371e+02
  1.500      2.73597e+02       3.28556e+00       6.02430e-01       1.08719e-03       8.53688e+02
  1.600      2.73252e+02       3.26572e+00       7.33990e-01       1.07509e-03       8.43117e+02
  1.700      2.73084e+02       3.18874e+00       9.39830e-01       1.06241e-03       8.32663e+02
  1.800      2.73054e+02       3.09854e+00       1.15725e+00       1.04934e-03       8.22331e+02
  1.900      2.73121e+02       3.03962e+00       1.32289e+00       1.03607e-03       8.12127e+02
  2.000      2.73243e+02       3.05647e+00       1.37335e+00       1.02276e-03       8.02057e+02
  2.100      2.73380e+02       3.18755e+00       1.25587e+00       1.00959e-03       7.92123e+02
  2.200      2.73494e+02       3.42573e+00       9.97459e-01       9.96679e-04       7.82322e+02
  2.300      2.73551e+02       3.74308e+00       6.61501e-01       9.84150e-04       7.72647e+02
  2.400      2.73512e+02       4.11159e+00       3.11561e-01       9.72113e-04       7.63090e+02
  2.500      2.73344e+02       4.50324e+00       1.12060e-02       9.60673e-04       7.53645e+02
  2.600      2.73011e+02       4.89139e+00      -1.79713e-01       9.49922e-04       7.44305e+02
  2.700      2.72527e+02       5.26904e+00      -2.54531e-01       9.39798e-04       7.35065e+02
  2.800      2.71934e+02       5.64384e+00      -2.46349e-01       9.30135e-04       7.25925e+02
  2.900      2.71278e+02       6.02382e+00      -1.89226e-01       9.20768e-04       7.16881e+02
  3.000      2.70604e+02       6.41702e+00      -1.17219e-01       9.11538e-04       7.07931e+02
  3.100      2.69956e+02       6.83144e+00      -6.43834e-02       9.02292e-04       6.99072e+02
  3.200      2.69365e+02       7.27060e+00      -5.87519e-02       8.92930e-04       6.90304e+02
  3.300      2.68817e+02       7.72476e+00      -1.10747e-01       8.83500e-04       6.81625e+02
  3.400      2.68292e+02       8.18179e+00      -2.27586e-01       8.74074e-04       6.73036e+02
  3.500      2.67769e+02       8.62954e+00      -4.16486e-01       8.64722e-04       6.64536e+02
  3.600      2.67226e+02       9.05588e+00      -6.84664e-01       8.55510e-04       6.56125e+02
  3.700      2.66644e+02       9.44872e+00      -1.03926e+00       8.46504e-04       6.47802e+02
  3.800      2.66012e+02       9.80042e+00      -1.47956e+00       8.37731e-04       6.39568e+02
  3.900      2.65339e+02       1.01116e+01      -1.99020e+00       8.29154e-04       6.31421e+02
  4.000      2.64640e+02       1.03838e+01      -2.55421e+00       8.20730e-04       6.23358e+02
  4.100      2.63926e+02       1.06186e+01      -3.15463e+00       8.12417e-04       6.15378e+02
  4.200      2.63209e+02       1.08176e+01      -3.77449e+00       8.04175e-04       6.07481e+02
  4.300      2.62502e+02       1.09822e+01      -4.39683e+00       7.95965e-04       5.99664e+02
  4.400      2.61815e+02       1.11161e+01      -5.00542e+00       7.87756e-04       5.91926e+02
  4.500      2.61150e+02       1.12298e+01      -5.58660e+00       7.79544e-04       5.84268e+02
  4.600      2.60507e+02       1.13353e+01      -6.12728e+00       7.71331e-04       5.76690e+02
  4.700      2.59887e+02       1.14449e+01      -6.61438e+00       7.63118e-04       5.69192e+02
  4.800      2.59290e+02       1.15706e+01      -7.03480e+00       7.54908e-04       5.61773e+02
  4.900      2.58715e+02       1.17244e+01      -7.37545e+00       7.46701e-04       5.54435e+02
  5.000      2.58164e+02       1.19185e+01      -7.62348e+00       7.38500e-04       5.47178e+02
  5.100      2.57634e+02       1.21585e+01      -7.77615e+00       7.30313e-04       5.40000e+02
  5.200      2.57121e+02       1.24423e+01      -7.84415e+00       7.22152e-04       5.32902e+02
  5.300      2.56620e+02       1.27672e+01      -7.83910e+00       7.14033e-04       5.25884e+02
  5.400      2.56126e+02       1.31302e+01      -7.77262e+00       7.05968e-04       5.18944e+02
  5.500      2.55635e+02       1.35286e+01      -7.65635e+00       6.97971e-04       5.12082e+02
  5.600      2.55142e+02       1.39596e+01      -7.50192e+00       6.90055e-04       5.05298e+02
  5.700      2.54642e+02       1.44203e+01      -7.32093e+00       6.82231e-04       4.98590e+02
  5.800      2.54132e+02       1.49068e+01      -7.12245e+00       6.74510e-04       4.91959e+02
  5.900      2.53607e+02       1.54127e+01      -6.91002e+00       6.66899e-04       4.85403e+02
  6.000      2.53065e+02       1.59310e+01      -6.68645e+00       6.59402e-04       4.78921e+02
  6.100      2.52502e+02       1.64549e+01      -6.45457e+00       6.52026e-04       4.72511e+02
  6.200      2.51916e+02       1.69776e+01      -6.21719e+00       6.44775e-04       4.66172e+02
  6.300      2.51303e+02       1.74923e+01      -5.97713e+00       6.37656e-04       4.59903e+02
  6.400      2.50660e+02       1.79921e+01      -5.73722e+00       6.30673e-04       4.53702e+02
  6.500      2.49984e+02       1.84704e+01      -5.50024e+00       6.23830e-04       4.47569e+02
  6.600      2.49275e+02       1.89258e+01      -5.26784e+00       6.17125e-04       4.41502e+02
  6.700      2.48537e+02       1.93639e+01      -5.04015e+00       6.10542e-04       4.35501e+02
  6.800      2.47777e+02       1.97911e+01      -4.81722e+00       6.04068e-04       4.29564e+02
  6.900      2.46997e+02       2.02134e+01      -4.59908e+00       5.97688e-04       4.23691e+02
  7.000      2.46204e+02       2.06369e+01      -4.38577e+00       5.91390e-04       4.17880e+02
  7.100      2.45402e+02       2.10680e+01      -4.17734e+00       5.85158e-04       4.12130e+02
  7.200      2.44597e+02       2.15127e+01      -3.97382e+00       5.78982e-04       4.06441e+02
  7.300      2.43792e+02       2.19771e+01      -3.77525e+00       5.72848e-04       4.00812e+02
  7.400      2.42992e+02       2.24669e+01      -3.58158e+00       5.66746e-04       3.95241e+02
  7.500      2.42198e+02       2.29826e+01      -3.39222e+00       5.60675e-04       3.89730e+02
  7.600      2.41408e+02       2.35234e+01      -3.20637e+00       5.54638e-04       3.84277e+02
  7.700      2.40623e+02       2.40883e+01      -3.02322e+00       5.48638e-04       3.78882e+02
  7.800      2.39840e+02       2.46763e+01      -2.84196e+00       5.42676e-04       3.73546e+02
  7.900      2.39059e+02       2.52865e+01      -2.66179e+00       5.36757e-04       3.68268e+02
  8.000      2.38279e+02       2.59180e+01      -2.48191e+00       5.30881e-04       3.63049e+02
  8.100      2.37499e+02       2.65696e+01      -2.30151e+00       5.25052e-04       3.57887e+02
  8.200      2.36718e+02       2.72405e+01      -2.11978e+00       5.19272e-04       3.52783e+02
  8.300      2.35935e+02       2.79297e+01      -1.93601e+00       5.13543e-04       3.47736e+02
  8.400      2.35149e+02       2.86335e+01      -1.75190e+00       5.07865e-04       3.42747e+02
  8.500      2.34360e+02       2.93457e+01      -1.57192e+00       5.02240e-04       3.37814e+02
  8.600      2.33568e+02       3.00598e+01      -1.40068e+00       4.96666e-04       3.32936e+02
  8.700      2.32772e+02       3.07692e+01      -1.24283e+00       4.91144e-04       3.28112e+02
  8.800      2.31972e+02       3.14675e+01      -1.10296e+00       4.85674e-04       3.23342e+02
  8.900      2.31167e+02       3.21482e+01      -9.85705e-01       4.80255e-04       3.18625e+02
  9.000      2.30357e+02       3.28047e+01      -8.95688e-01       4.74888e-04       3.13960e+02
  9.100      2.29542e+02       3.34306e+01      -8.37528e-01       4.69572e-04       3.09347e+02
  9.200      2.28720e+02       3.40194e+01      -8.15845e-01       4.64307e-04       3.04784e+02
  9.300      2.27893e+02       3.45646e+01      -8.35263e-01       4.59093e-04       3.00271e+02
  9.400      2.27058e+02       3.50611e+01      -8.99314e-01       4.53931e-04       2.95807e+02
  9.500      2.26217e+02       3.55115e+01      -1.00633e+00       4.48820e-04       2.91393e+02
  9.600      2.25368e+02       3.59202e+01      -1.15309e+00       4.43760e-04       2.87027e+02
  9.700      2.24512e+02       3.62919e+01      -1.33635e+00       4.38753e-04       2.82710e+02
  9.800      2.23647e+02       3.66310e+01      -1.55289e+00       4.33798e-04       2.78441e+02
  9.900      2.22775e+02       3.69421e+01      -1.79947e+00       4.28895e-04       2.74220e+02
 10.000      2.21894e+02       3.72299e+01      -2.07288e+00       4.24045e-04       2.70047e+02
 10.100      2.21004e+02       3.74988e+01      -2.36988e+00       4.19249e-04       2.65922e+02
 10.200      2.20105e+02       3.77534e+01      -2.68724e+00       4.14505e-04       2.61844e+02
 10.300      2.19197e+02       3.79983e+01      -3.02174e+00       4.09815e-04       2.57813e+02
 10.400      2.18279e+02       3.82381e+01      -3.37014e+00       4.05179e-04       2.53829e+02
 10.500      2.17352e+02       3.84772e+01      -3.72921e+00       4.00597e-04       2.49892e+02
 10.600      2.16415e+02       3.87185e+01      -4.09548e+00       3.96066e-04       2.46001e+02
 10.700      2.15476e+02       3.89579e+01      -4.46451e+00       3.91574e-04       2.42156e+02
 10.800      2.14544e+02       3.91896e+01      -4.83168e+00       3.87109e-04       2.38358e+02
 10.900      2.13624e+02       3.94081e+01      -5.19233e+00       3.82656e-04       2.34607e+02
 11.000      2.12727e+02       3.96077e+01      -5.54185e+00       3.78202e-04       2.30902e+02
 11.100      2.11858e+02       3.97827e+01      -5.87559e+00       3.73736e-04       2.27244e+02
 11.200      2.11027e+02       3.99274e+01      -6.18891e+00       3.69245e-04       2.23633e+02
 11.300      2.10242e+02       4.00364e+01      -6.47717e+00       3.64717e-04       2.20068e+02
 11.400      2.09509e+02       4.01037e+01      -6.73574e+00       3.60141e-04       2.16550e+02
 11.500      2.08837e+02       4.01240e+01      -6.95998e+00       3.55507e-04       2.13078e+02
 11.600      2.08234e+02       4.00913e+01      -7.14526e+00       3.50805e-04       2.09652e+02
 11.700      2.07708e+02       4.00003e+01      -7.28693e+00       3.46025e-04       2.06273e+02
 11.800      2.07266e+02       3.98450e+01      -7.38035e+00       3.41159e-04       2.02940e+02
 11.900      2.06917e+02       3.96200e+01      -7.42090e+00       3.36200e-04       1.99653e+02
 12.000      2.06665e+02       3.93225e+01      -7.40610e+00       3.31145e-04       1.96411e+02
 12.100      2.06504e+02       3.89581e+01      -7.33984e+00       3.26011e-04       1.93216e+02
 12.200      2.06429e+02       3.85341e+01      -7.22712e+00       3.20816e-04       1.90068e+02
 12.300      2.06432e+02       3.80577e+01      -7.07296e+00       3.15577e-04       1.86967e+02
 12.400      2.06507e+02       3.75362e+01      -6.88240e+00       3.10312e-04       1.83914e+02
 12.500      2.06645e+02       3.69767e+01      -6.66043e+00       3.05035e-04       1.80908e+02
 12.600      2.06842e+02       3.63865e+01      -6.41208e+00       2.99762e-04       1.77950e+02
 12.700      2.07089e+02       3.57728e+01      -6.14238e+00       2.94509e-04       1.75040e+02
 12.800      2.07380e+02       3.51429e+01      -5.85634e+00       2.89287e-04       1.72178e+02
 12.900      2.07708e+02       3.45039e+01      -5.55898e+00       2.84111e-04       1.69365e+02
 13.000      2.08067e+02       3.38631e+01      -5.25532e+00       2.78991e-04       1.66600e+02
 13.100      2.08448e+02       3.32277e+01      -4.95037e+00       2.73939e-04       1.63883e+02
 13.200      2.08846e+02       3.26050e+01      -4.64916e+00       2.68965e-04       1.61215e+02
 13.300      2.09254e+02       3.20021e+01      -4.35670e+00       2.64078e-04       1.58594e+02
 13.400      2.09665e+02       3.14263e+01      -4.07802e+00       2.59286e-04       1.56022e+02
 13.500      2.10071e+02       3.08848e+01      -3.81814e+00       2.54597e-04       1.53498e+02
 13.600      2.10466e+02       3.03849e+01      -3.58206e+00       2.50019e-04       1.51021e+02
 13.700      2.10844e+02       2.99334e+01      -3.37459e+00       2.45556e-04       1.48592e+02
 13.800      2.11201e+02       2.95317e+01      -3.19690e+00       2.41210e-04       1.46209e+02
 13.900      2.11537e+02       2.91768e+01      -3.04727e+00       2.36976e-04       1.43871e+02
 14.000      2.11852e+02       2.88654e+01      -2.92385e+00       2.32850e-04       1.41576e+02
 14.100      2.12146e+02       2.85944e+01      -2.82485e+00       2.28829e-04       1.39324e+02
 14.200      2.12418e+02       2.83607e+01      -2.74843e+00       2.24908e-04       1.37113e+02
 14.300      2.12669e+02       2.81610e+01      -2.69277e+00       2.21085e-04       1.34941e+02
 14.400      2.12898e+02       2.79921e+01      -2.65606e+00       2.17356e-04       1.32808e+02
 14.500      2.13104e+02       2.78510e+01      -2.63646e+00       2.13717e-04       1.30711e+02
 14.600      2.13289e+02       2.77343e+01      -2.63217e+00       2.10166e-04       1.28651e+02
 14.700      2.13451e+02       2.76390e+01      -2.64136e+00       2.06700e-04       1.26626e+02
 14.800      2.13591e+02       2.75618e+01      -2.66221e+00       2.03316e-04       1.24634e+02
 14.900      2.13709e+02       2.74996e+01      -2.69289e+00       2.00010e-04       1.22675e+02
 15.000      2.13803e+02       2.74491e+01      -2.73159e+00       1.96781e-04       1.20748e+02
 15.100      2.13875e+02       2.74073e+01      -2.77649e+00       1.93626e-04       1.18852e+02
 15.200      2.13923e+02       2.73709e+01      -2.82576e+00       1.90543e-04       1.16986e+02
 15.300      2.13949e+02       2.73368e+01      -2.87759e+00       1.87529e-04       1.15149e+02
 15.400      2.13950e+02       2.73017e+01      -2.93015e+00       1.84581e-04       1.13340e+02
 15.500      2.13929e+02       2.72625e+01      -2.98163e+00       1.81699e-04       1.11559e+02
 15.600      2.13883e+02       2.72160e+01      -3.03019e+00       1.78879e-04       1.09804e+02
 15.700      2.13813e+02       2.71591e+01      -3.07403e+00       1.76120e-04       1.08075e+02
 15.800      2.13720e+02       2.70885e+01      -3.11131e+00       1.73419e-04       1.06371e+02
 15.900      2.13602e+02       2.70011e+01      -3.14023e+00       1.70776e-04       1.04692e+02
 16.000      2.13459e+02       2.68937e+01      -3.15895e+00       1.68187e-04       1.03036e+02
 16.100      2.13292e+02       2.67631e+01      -3.16566e+00       1.65652e-04       1.01404e+02
 16.200      2.13100e+02       2.66062e+01      -3.15853e+00       1.63169e-04       9.97942e+01
 16.300      2.12884e+02       2.64210e+01      -3.13664e+00       1.60736e-04       9.82065e+01
 16.400      2.12647e+02       2.62096e+01      -3.10142e+00       1.58350e-04       9.66407e+01
 16.500      2.12390e+02       2.59742e+01      -3.05476e+00       1.56009e-04       9.50967e+01
 16.600      2.12118e+02       2.57174e+01      -2.99851e+00       1.53709e-04       9.35746e+01
 16.700      2.11832e+02       2.54417e+01      -2.93454e+00       1.51448e-04       9.20742e+01
 16.800      2.11536e+02       2.51495e+01      -2.86472e+00       1.49225e-04       9.05955e+01
 16.900      2.11233e+02       2.48433e+01      -2.79090e+00       1.47035e-04       8.91383e+01
 17.000      2.10925e+02       2.45255e+01      -2.71497e+00       1.44878e-04       8.77025e+01
 17.100      2.10615e+02       2.41987e+01      -2.63878e+00       1.42751e-04       8.62880e+01
 17.200      2.10306e+02       2.38652e+01      -2.56419e+00       1.40652e-04       8.48947e+01
 17.300      2.10002e+02       2.35276e+01      -2.49308e+00       1.38579e-04       8.35224e+01
 17.400      2.09704e+02       2.31883e+01      -2.42730e+00       1.36531e-04       8.21711e+01
 17.500      2.09416e+02       2.28499e+01      -2.36873e+00       1.34505e-04       8.08405e+01
 17.600      2.09140e+02       2.25146e+01      -2.31923e+00       1.32500e-04       7.95306e+01
 17.700      2.08880e+02       2.21851e+01      -2.28066e+00       1.30514e-04       7.82411e+01
 17.800      2.08638e+02       2.18638e+01      -2.25489e+00       1.28546e-04       7.69719e+01
 17.900      2.08417e+02       2.15532e+01      -2.24379e+00       1.26594e-04       7.57228e+01
 18.000      2.08220e+02       2.12556e+01      -2.24922e+00       1.24657e-04       7.44937e+01
 18.100      2.08050e+02       2.09737e+01      -2.27304e+00       1.22733e-04       7.32844e+01
 18.200      2.07909e+02       2.07098e+01      -2.31712e+00       1.20822e-04       7.20947e+01
 18.300      2.07801e+02       2.04665e+01      -2.38333e+00       1.18923e-04       7.09244e+01
 18.400      2.07729e+02       2.02461e+01      -2.47353e+00       1.17034e-04       6.97734e+01
 18.500      2.07693e+02       2.00499e+01      -2.58839e+00       1.15155e-04       6.86414e+01
 18.600      2.07691e+02       1.98762e+01      -2.72596e+00       1.13288e-04       6.75282e+01
 18.700      2.07722e+02       1.97230e+01      -2.88390e+00       1.11435e-04       6.64335e+01
 18.800      2.07783e+02       1.95881e+01      -3.05988e+00       1.09598e-04       6.53572e+01
 18.900      2.07870e+02       1.94695e+01      -3.25159e+00       1.07778e-04       6.42989e+01
 19.000      2.07982e+02       1.93652e+01      -3.45670e+00       1.05977e-04       6.32584e+01
 19.100      2.08117e+02       1.92731e+01      -3.67287e+00       1.04196e-04       6.22355e+01
 19.200      2.08270e+02       1.91911e+01      -3.89780e+00       1.02437e-04       6.12300e+01
 19.300      2.08441e+02       1.91171e+01      -4.12913e+00       1.00700e-04       6.02417e+01
 19.400      2.08627e+02       1.90492e+01      -4.36457e+00       9.89882e-05       5.92701e+01
 19.500      2.08825e+02       1.89852e+01      -4.60177e+00       9.73012e-05       5.83152e+01
 19.600      2.09032e+02       1.89231e+01      -4.83841e+00       9.56404e-05       5.73768e+01
 19.700      2.09246e+02       1.88608e+01      -5.07217e+00       9.40067e-05       5.64545e+01
 19.800      2.09465e+02       1.87962e+01      -5.30071e+00       9.24008e-05       5.55482e+01
 19.900      2.09686e+02       1.87273e+01      -5.52172e+00       9.08234e-05       5.46576e+01
 20.000      2.09907e+02       1.86521e+01      -5.73286e+00       8.92753e-05       5.37824e+01
 20.100      2.10125e+02       1.85684e+01      -5.93182e+00       8.77570e-05       5.29226e+01
 20.200      2.10337e+02       1.84743e+01      -6.11626e+00       8.62690e-05       5.20778e+01
 20.300      2.10541e+02       1.83675e+01      -6.28386e+00       8.48117e-05       5.12478e+01
