# Data Source: NASA MERRA (version 1)
# Model Time = 2010-03-01 12:00:00
# Location = [  39.7393, -104.9900 ]
# Fields = [ Z(km), T(K), U(m/s), V(m/s), R(g/cm3), P(mbar) ]
# Ground Height = 1.589
  0.000      2.82453e+02       1.05401e+00      -1.74737e+00       1.26096e-03       1.02219e+03
  0.100      2.81797e+02       1.05926e+00      -1.71744e+00       1.24863e-03       1.00984e+03
  0.200      2.81144e+02       1.06176e+00      -1.65177e+00       1.23642e-03       9.97649e+02
  0.300      2.80490e+02       1.06491e+00      -1.59470e+00       1.22435e-03       9.85606e+02
  0.400      2.79832e+02       1.07215e+00      -1.59050e+00       1.21239e-03       9.73691e+02
  0.500      2.79172e+02       1.08365e+00      -1.65802e+00       1.20053e-03       9.61894e+02
  0.600      2.78524e+02       1.09022e+00      -1.74270e+00       1.18872e-03       9.50217e+02
  0.700      2.77896e+02       1.08189e+00      -1.78931e+00       1.17692e-03       9.38662e+02
  0.800      2.77261e+02       1.05244e+00      -1.79517e+00       1.16523e-03       9.27221e+02
  0.900      2.76592e+02       9.98781e-01      -1.77275e+00       1.15377e-03       9.15884e+02
  1.000      2.75906e+02       9.33505e-01      -1.74348e+00       1.14246e-03       9.04653e+02
  1.100      2.75242e+02       8.75240e-01      -1.73193e+00       1.13114e-03       8.93535e+02
  1.200      2.74608e+02       8.28656e-01      -1.74844e+00       1.11979e-03       8.82532e+02
  1.300      2.73985e+02       7.87152e-01      -1.79189e+00       1.10848e-03       8.71640e+02
  1.400      2.73355e+02       7.43806e-01      -1.86086e+00       1.09729e-03       8.60858e+02
  1.500      2.72700e+02       6.91696e-01      -1.95393e+00       1.08629e-03       8.50183e+02
  1.600      2.72008e+02       6.28084e-01      -2.07280e+00       1.07551e-03       8.39613e+02
  1.700      2.71295e+02       5.67851e-01      -2.23249e+00       1.06490e-03       8.29149e+02
  1.800      2.70584e+02       5.30520e-01      -2.45146e+00       1.05436e-03       8.18788e+02
  1.900      2.69899e+02       5.35608e-01      -2.74823e+00       1.04379e-03       8.08530e+02
  2.000      2.69263e+02       6.02605e-01      -3.14123e+00       1.03312e-03       7.98376e+02
  2.100      2.68690e+02       7.38472e-01      -3.63333e+00       1.02228e-03       7.88324e+02
  2.200      2.68172e+02       9.18942e-01      -4.18849e+00       1.01133e-03       7.78377e+02
  2.300      2.67696e+02       1.11496e+00      -4.76472e+00       1.00032e-03       7.68536e+02
  2.400      2.67249e+02       1.29746e+00      -5.32005e+00       9.89304e-04       7.58802e+02
  2.500      2.66819e+02       1.43741e+00      -5.81247e+00       9.78330e-04       7.49178e+02
  2.600      2.66396e+02       1.51442e+00      -6.21502e+00       9.67440e-04       7.39663e+02
  2.700      2.65978e+02       1.53507e+00      -6.54717e+00       9.56640e-04       7.30257e+02
  2.800      2.65564e+02       1.51108e+00      -6.83736e+00       9.45929e-04       7.20958e+02
  2.900      2.65155e+02       1.45420e+00      -7.11402e+00       9.35309e-04       7.11764e+02
  3.000      2.64749e+02       1.37618e+00      -7.40559e+00       9.24779e-04       7.02675e+02
  3.100      2.64348e+02       1.28778e+00      -7.73805e+00       9.14339e-04       6.93689e+02
  3.200      2.63947e+02       1.18973e+00      -8.11207e+00       9.03997e-04       6.84804e+02
  3.300      2.63545e+02       1.07694e+00      -8.51358e+00       8.93762e-04       6.76019e+02
  3.400      2.63138e+02       9.44216e-01      -8.92832e+00       8.83643e-04       6.67334e+02
  3.500      2.62723e+02       7.86377e-01      -9.34201e+00       8.73650e-04       6.58746e+02
  3.600      2.62297e+02       5.98240e-01      -9.74041e+00       8.63791e-04       6.50256e+02
  3.700      2.61857e+02       3.78286e-01      -1.01086e+01       8.54072e-04       6.41861e+02
  3.800      2.61401e+02       1.41039e-01      -1.04289e+01       8.44497e-04       6.33560e+02
  3.900      2.60929e+02      -9.45876e-02      -1.06827e+01       8.35064e-04       6.25352e+02
  4.000      2.60440e+02      -3.09675e-01      -1.08517e+01       8.25773e-04       6.17235e+02
  4.100      2.59933e+02      -4.85308e-01      -1.09173e+01       8.16625e-04       6.09208e+02
  4.200      2.59407e+02      -6.02571e-01      -1.08610e+01       8.07619e-04       6.01270e+02
  4.300      2.58860e+02      -6.46270e-01      -1.06694e+01       7.98756e-04       5.93419e+02
  4.400      2.58294e+02      -6.25523e-01      -1.03620e+01       7.90031e-04       5.85654e+02
  4.500      2.57709e+02      -5.59206e-01      -9.97178e+00       7.81440e-04       5.77973e+02
  4.600      2.57105e+02      -4.66225e-01      -9.53148e+00       7.72979e-04       5.70375e+02
  4.700      2.56483e+02      -3.65481e-01      -9.07398e+00       7.64643e-04       5.62859e+02
  4.800      2.55843e+02      -2.75879e-01      -8.63214e+00       7.56429e-04       5.55423e+02
  4.900      2.55186e+02      -2.16228e-01      -8.23872e+00       7.48333e-04       5.48067e+02
  5.000      2.54512e+02      -1.95464e-01      -7.91414e+00       7.40350e-04       5.40788e+02
  5.100      2.53824e+02      -2.04051e-01      -7.65582e+00       7.32473e-04       5.33587e+02
  5.200      2.53122e+02      -2.30431e-01      -7.45868e+00       7.24695e-04       5.26462e+02
  5.300      2.52410e+02      -2.63045e-01      -7.31760e+00       7.17010e-04       5.19414e+02
  5.400      2.51688e+02      -2.90333e-01      -7.22749e+00       7.09412e-04       5.12440e+02
  5.500      2.50959e+02      -3.00737e-01      -7.18326e+00       7.01894e-04       5.05540e+02
  5.600      2.50224e+02      -2.82716e-01      -7.17979e+00       6.94451e-04       4.98714e+02
  5.700      2.49484e+02      -2.29126e-01      -7.21011e+00       6.87078e-04       4.91961e+02
  5.800      2.48738e+02      -1.42936e-01      -7.26296e+00       6.79780e-04       4.85279e+02
  5.900      2.47984e+02      -2.85309e-02      -7.32645e+00       6.72558e-04       4.78669e+02
  6.000      2.47221e+02       1.09703e-01      -7.38873e+00       6.65415e-04       4.72129e+02
  6.100      2.46448e+02       2.67381e-01      -7.43791e+00       6.58355e-04       4.65658e+02
  6.200      2.45662e+02       4.40118e-01      -7.46214e+00       6.51380e-04       4.59255e+02
  6.300      2.44863e+02       6.23529e-01      -7.44953e+00       6.44492e-04       4.52921e+02
  6.400      2.44048e+02       8.13228e-01      -7.38872e+00       6.37695e-04       4.46653e+02
  6.500      2.43219e+02       1.00484e+00      -7.27787e+00       6.30986e-04       4.40452e+02
  6.600      2.42375e+02       1.19400e+00      -7.12390e+00       6.24359e-04       4.34315e+02
  6.700      2.41520e+02       1.37633e+00      -6.93403e+00       6.17811e-04       4.28243e+02
  6.800      2.40654e+02       1.54749e+00      -6.71549e+00       6.11334e-04       4.22235e+02
  6.900      2.39780e+02       1.70308e+00      -6.47549e+00       6.04925e-04       4.16290e+02
  7.000      2.38897e+02       1.83876e+00      -6.22127e+00       5.98578e-04       4.10406e+02
  7.100      2.38009e+02       1.95014e+00      -5.96004e+00       5.92289e-04       4.04584e+02
  7.200      2.37116e+02       2.03289e+00      -5.69903e+00       5.86053e-04       3.98822e+02
  7.300      2.36219e+02       2.08607e+00      -5.44234e+00       5.79866e-04       3.93120e+02
  7.400      2.35319e+02       2.11621e+00      -5.18735e+00       5.73730e-04       3.87478e+02
  7.500      2.34416e+02       2.13086e+00      -4.93050e+00       5.67644e-04       3.81895e+02
  7.600      2.33508e+02       2.13758e+00      -4.66824e+00       5.61610e-04       3.76372e+02
  7.700      2.32595e+02       2.14391e+00      -4.39704e+00       5.55628e-04       3.70909e+02
  7.800      2.31679e+02       2.15738e+00      -4.11334e+00       5.49699e-04       3.65505e+02
  7.900      2.30757e+02       2.18555e+00      -3.81360e+00       5.43824e-04       3.60160e+02
  8.000      2.29830e+02       2.23596e+00      -3.49427e+00       5.38002e-04       3.54873e+02
  8.100      2.28898e+02       2.31616e+00      -3.15180e+00       5.32236e-04       3.49646e+02
  8.200      2.27962e+02       2.43008e+00      -2.78658e+00       5.26521e-04       3.44477e+02
  8.300      2.27026e+02       2.56992e+00      -2.41174e+00       5.20846e-04       3.39365e+02
  8.400      2.26097e+02       2.72546e+00      -2.04304e+00       5.15199e-04       3.34311e+02
  8.500      2.25179e+02       2.88649e+00      -1.69624e+00       5.09564e-04       3.29312e+02
  8.600      2.24278e+02       3.04280e+00      -1.38708e+00       5.03931e-04       3.24369e+02
  8.700      2.23400e+02       3.18418e+00      -1.13133e+00       4.98286e-04       3.19480e+02
  8.800      2.22551e+02       3.30043e+00      -9.44737e-01       4.92618e-04       3.14646e+02
  8.900      2.21736e+02       3.38133e+00      -8.43054e-01       4.86915e-04       3.09864e+02
  9.000      2.20961e+02       3.41667e+00      -8.42035e-01       4.81166e-04       3.05135e+02
  9.100      2.20231e+02       3.39623e+00      -9.57435e-01       4.75360e-04       3.00458e+02
  9.200      2.19552e+02       3.31226e+00      -1.20104e+00       4.69490e-04       2.95832e+02
  9.300      2.18927e+02       3.17008e+00      -1.56330e+00       4.63554e-04       2.91260e+02
  9.400      2.18358e+02       2.97942e+00      -2.02749e+00       4.57554e-04       2.86743e+02
  9.500      2.17847e+02       2.75001e+00      -2.57690e+00       4.51494e-04       2.82283e+02
  9.600      2.17398e+02       2.49159e+00      -3.19482e+00       4.45375e-04       2.77883e+02
  9.700      2.17012e+02       2.21389e+00      -3.86452e+00       4.39200e-04       2.73544e+02
  9.800      2.16692e+02       1.92664e+00      -4.56930e+00       4.32972e-04       2.69268e+02
  9.900      2.16440e+02       1.63957e+00      -5.29242e+00       4.26695e-04       2.65056e+02
 10.000      2.16260e+02       1.36242e+00      -6.01719e+00       4.20370e-04       2.60909e+02
 10.100      2.16152e+02       1.10492e+00      -6.72688e+00       4.14001e-04       2.56829e+02
 10.200      2.16121e+02       8.76797e-01      -7.40476e+00       4.07593e-04       2.52816e+02
 10.300      2.16167e+02       6.87742e-01      -8.03422e+00       4.01148e-04       2.48872e+02
 10.400      2.16290e+02       5.43410e-01      -8.60543e+00       3.94677e-04       2.44997e+02
 10.500      2.16481e+02       4.42391e-01      -9.12053e+00       3.88199e-04       2.41189e+02
 10.600      2.16732e+02       3.82567e-01      -9.58287e+00       3.81734e-04       2.37446e+02
 10.700      2.17033e+02       3.61817e-01      -9.99580e+00       3.75299e-04       2.33768e+02
 10.800      2.17374e+02       3.78020e-01      -1.03627e+01       3.68913e-04       2.30152e+02
 10.900      2.17748e+02       4.29056e-01      -1.06868e+01       3.62592e-04       2.26597e+02
 11.000      2.18145e+02       5.12805e-01      -1.09716e+01       3.56350e-04       2.23102e+02
 11.100      2.18556e+02       6.27145e-01      -1.12203e+01       3.50201e-04       2.19665e+02
 11.200      2.18971e+02       7.69956e-01      -1.14364e+01       3.44159e-04       2.16286e+02
 11.300      2.19383e+02       9.39119e-01      -1.16232e+01       3.38234e-04       2.12962e+02
 11.400      2.19781e+02       1.13251e+00      -1.17839e+01       3.32438e-04       2.09693e+02
 11.500      2.20157e+02       1.34801e+00      -1.19221e+01       3.26780e-04       2.06477e+02
 11.600      2.20502e+02       1.58351e+00      -1.20409e+01       3.21270e-04       2.03313e+02
 11.700      2.20806e+02       1.83687e+00      -1.21438e+01       3.15915e-04       2.00200e+02
 11.800      2.21063e+02       2.10593e+00      -1.22337e+01       3.10720e-04       1.97137e+02
 11.900      2.21272e+02       2.38834e+00      -1.23114e+01       3.05680e-04       1.94123e+02
 12.000      2.21437e+02       2.68167e+00      -1.23772e+01       3.00784e-04       1.91156e+02
 12.100      2.21561e+02       2.98349e+00      -1.24311e+01       2.96024e-04       1.88236e+02
 12.200      2.21646e+02       3.29138e+00      -1.24734e+01       2.91392e-04       1.85362e+02
 12.300      2.21696e+02       3.60291e+00      -1.25043e+01       2.86880e-04       1.82532e+02
 12.400      2.21712e+02       3.91566e+00      -1.25240e+01       2.82481e-04       1.79747e+02
 12.500      2.21700e+02       4.22720e+00      -1.25327e+01       2.78186e-04       1.77004e+02
 12.600      2.21660e+02       4.53510e+00      -1.25305e+01       2.73990e-04       1.74302e+02
 12.700      2.21596e+02       4.83695e+00      -1.25178e+01       2.69886e-04       1.71642e+02
 12.800      2.21511e+02       5.13031e+00      -1.24946e+01       2.65869e-04       1.69023e+02
 12.900      2.21408e+02       5.41277e+00      -1.24612e+01       2.61931e-04       1.66442e+02
 13.000      2.21290e+02       5.68189e+00      -1.24177e+01       2.58069e-04       1.63900e+02
 13.100      2.21160e+02       5.93525e+00      -1.23644e+01       2.54276e-04       1.61396e+02
 13.200      2.21020e+02       6.17043e+00      -1.23014e+01       2.50547e-04       1.58929e+02
 13.300      2.20874e+02       6.38500e+00      -1.22290e+01       2.46878e-04       1.56498e+02
 13.400      2.20724e+02       6.57654e+00      -1.21474e+01       2.43265e-04       1.54103e+02
 13.500      2.20573e+02       6.74261e+00      -1.20567e+01       2.39702e-04       1.51742e+02
 13.600      2.20425e+02       6.88082e+00      -1.19571e+01       2.36186e-04       1.49416e+02
 13.700      2.20281e+02       6.99003e+00      -1.18490e+01       2.32714e-04       1.47123e+02
 13.800      2.20141e+02       7.07162e+00      -1.17328e+01       2.29285e-04       1.44864e+02
 13.900      2.20005e+02       7.12727e+00      -1.16093e+01       2.25900e-04       1.42637e+02
 14.000      2.19874e+02       7.15863e+00      -1.14788e+01       2.22559e-04       1.40443e+02
 14.100      2.19745e+02       7.16737e+00      -1.13421e+01       2.19260e-04       1.38281e+02
 14.200      2.19621e+02       7.15516e+00      -1.11996e+01       2.16005e-04       1.36150e+02
 14.300      2.19500e+02       7.12364e+00      -1.10519e+01       2.12792e-04       1.34051e+02
 14.400      2.19382e+02       7.07450e+00      -1.08997e+01       2.09622e-04       1.31984e+02
 14.500      2.19267e+02       7.00939e+00      -1.07434e+01       2.06495e-04       1.29946e+02
 14.600      2.19154e+02       6.92998e+00      -1.05837e+01       2.03410e-04       1.27939e+02
 14.700      2.19045e+02       6.83794e+00      -1.04210e+01       2.00367e-04       1.25962e+02
 14.800      2.18938e+02       6.73491e+00      -1.02560e+01       1.97365e-04       1.24015e+02
 14.900      2.18834e+02       6.62258e+00      -1.00893e+01       1.94406e-04       1.22097e+02
 15.000      2.18731e+02       6.50260e+00      -9.92138e+00       1.91487e-04       1.20208e+02
 15.100      2.18631e+02       6.37664e+00      -9.75282e+00       1.88609e-04       1.18347e+02
 15.200      2.18533e+02       6.24636e+00      -9.58421e+00       1.85773e-04       1.16515e+02
 15.300      2.18436e+02       6.11342e+00      -9.41610e+00       1.82976e-04       1.14710e+02
 15.400      2.18341e+02       5.97949e+00      -9.24907e+00       1.80220e-04       1.12933e+02
 15.500      2.18247e+02       5.84624e+00      -9.08368e+00       1.77504e-04       1.11182e+02
 15.600      2.18154e+02       5.71532e+00      -8.92051e+00       1.74827e-04       1.09459e+02
 15.700      2.18062e+02       5.58840e+00      -8.76012e+00       1.72189e-04       1.07762e+02
 15.800      2.17971e+02       5.46715e+00      -8.60307e+00       1.69590e-04       1.06092e+02
 15.900      2.17881e+02       5.35322e+00      -8.44994e+00       1.67030e-04       1.04447e+02
 16.000      2.17791e+02       5.24829e+00      -8.30129e+00       1.64508e-04       1.02827e+02
 16.100      2.17701e+02       5.15401e+00      -8.15769e+00       1.62024e-04       1.01233e+02
 16.200      2.17612e+02       5.07205e+00      -8.01970e+00       1.59577e-04       9.96631e+01
 16.300      2.17522e+02       5.00329e+00      -7.88764e+00       1.57167e-04       9.81179e+01
 16.400      2.17433e+02       4.94695e+00      -7.76124e+00       1.54794e-04       9.65966e+01
 16.500      2.17345e+02       4.90205e+00      -7.64017e+00       1.52456e-04       9.50990e+01
 16.600      2.17257e+02       4.86759e+00      -7.52409e+00       1.50153e-04       9.36245e+01
 16.700      2.17170e+02       4.84260e+00      -7.41268e+00       1.47884e-04       9.21728e+01
 16.800      2.17084e+02       4.82608e+00      -7.30561e+00       1.45648e-04       9.07435e+01
 16.900      2.17000e+02       4.81704e+00      -7.20255e+00       1.43445e-04       8.93362e+01
 17.000      2.16917e+02       4.81451e+00      -7.10315e+00       1.41275e-04       8.79506e+01
 17.100      2.16835e+02       4.81748e+00      -7.00710e+00       1.39135e-04       8.65861e+01
 17.200      2.16756e+02       4.82498e+00      -6.91406e+00       1.37026e-04       8.52426e+01
 17.300      2.16679e+02       4.83602e+00      -6.82371e+00       1.34947e-04       8.39197e+01
 17.400      2.16605e+02       4.84960e+00      -6.73570e+00       1.32898e-04       8.26169e+01
 17.500      2.16533e+02       4.86474e+00      -6.64970e+00       1.30878e-04       8.13340e+01
 17.600      2.16464e+02       4.88046e+00      -6.56540e+00       1.28886e-04       8.00706e+01
 17.700      2.16397e+02       4.89577e+00      -6.48245e+00       1.26922e-04       7.88265e+01
 17.800      2.16335e+02       4.90967e+00      -6.40053e+00       1.24986e-04       7.76012e+01
 17.900      2.16275e+02       4.92118e+00      -6.31930e+00       1.23076e-04       7.63945e+01
 18.000      2.16220e+02       4.92932e+00      -6.23843e+00       1.21192e-04       7.52060e+01
 18.100      2.16168e+02       4.93309e+00      -6.15759e+00       1.19335e-04       7.40355e+01
 18.200      2.16121e+02       4.93151e+00      -6.07645e+00       1.17502e-04       7.28827e+01
 18.300      2.16077e+02       4.92359e+00      -5.99469e+00       1.15695e-04       7.17473e+01
 18.400      2.16039e+02       4.90834e+00      -5.91196e+00       1.13912e-04       7.06289e+01
 18.500      2.16005e+02       4.88480e+00      -5.82794e+00       1.12153e-04       6.95274e+01
 18.600      2.15976e+02       4.85250e+00      -5.74256e+00       1.10418e-04       6.84424e+01
 18.700      2.15952e+02       4.81162e+00      -5.65601e+00       1.08706e-04       6.73739e+01
 18.800      2.15932e+02       4.76237e+00      -5.56852e+00       1.07018e-04       6.63217e+01
 18.900      2.15917e+02       4.70495e+00      -5.48031e+00       1.05354e-04       6.52857e+01
 19.000      2.15906e+02       4.63956e+00      -5.39161e+00       1.03713e-04       6.42656e+01
 19.100      2.15899e+02       4.56641e+00      -5.30264e+00       1.02095e-04       6.32613e+01
 19.200      2.15896e+02       4.48571e+00      -5.21361e+00       1.00501e-04       6.22728e+01
 19.300      2.15898e+02       4.39766e+00      -5.12476e+00       9.89301e-05       6.12997e+01
 19.400      2.15903e+02       4.30247e+00      -5.03631e+00       9.73822e-05       6.03420e+01
 19.500      2.15912e+02       4.20034e+00      -4.94847e+00       9.58572e-05       5.93995e+01
 19.600      2.15924e+02       4.09148e+00      -4.86148e+00       9.43550e-05       5.84720e+01
 19.700      2.15940e+02       3.97610e+00      -4.77554e+00       9.28754e-05       5.75593e+01
 19.800      2.15959e+02       3.85440e+00      -4.69090e+00       9.14185e-05       5.66614e+01
 19.900      2.15981e+02       3.72658e+00      -4.60776e+00       8.99839e-05       5.57780e+01
 20.000      2.16007e+02       3.59286e+00      -4.52635e+00       8.85715e-05       5.49089e+01
 20.100      2.16035e+02       3.45343e+00      -4.44690e+00       8.71811e-05       5.40540e+01
 20.200      2.16066e+02       3.30851e+00      -4.36963e+00       8.58126e-05       5.32132e+01
 20.300      2.16100e+02       3.15830e+00      -4.29475e+00       8.44658e-05       5.23862e+01
