# Data Source: NASA MERRA (version 1)
# Model Time = 2010-03-02 12:00:00
# Location = [  39.7393, -104.9900 ]
# Fields = [ Z(km), T(K), U(m/s), V(m/s), R(g/cm3), P(mbar) ]
# Ground Height = 1.589
  0.000      2.83872e+02       2.81784e+00      -2.37423e-01       1.25647e-03       1.02366e+03
  0.100      2.83224e+02       2.81246e+00      -1.81657e-01       1.24421e-03       1.01136e+03
  0.200      2.82595e+02       2.80713e+00      -1.11610e-01       1.23201e-03       9.99219e+02
  0.300      2.81965e+02       2.80180e+00      -4.25516e-02       1.21994e-03       9.87225e+02
  0.400      2.81312e+02       2.79641e+00       1.02518e-02       1.20807e-03       9.75356e+02
  0.500      2.80623e+02       2.79027e+00       3.59640e-02       1.19644e-03       9.63599e+02
  0.600      2.79913e+02       2.77992e+00       4.31570e-02       1.18498e-03       9.51953e+02
  0.700      2.79207e+02       2.76285e+00       4.36132e-02       1.17358e-03       9.40421e+02
  0.800      2.78527e+02       2.74802e+00       3.50579e-02       1.16217e-03       9.29002e+02
  0.900      2.77888e+02       2.74717e+00       1.14189e-02       1.15066e-03       9.17694e+02
  1.000      2.77249e+02       2.74828e+00      -8.79444e-03       1.13923e-03       9.06495e+02
  1.100      2.76529e+02       2.72369e+00       8.91876e-03       1.12823e-03       8.95404e+02
  1.200      2.75719e+02       2.66407e+00       7.36374e-02       1.11767e-03       8.84422e+02
  1.300      2.74896e+02       2.58329e+00       1.62344e-01       1.10723e-03       8.73549e+02
  1.400      2.74146e+02       2.49669e+00       2.50006e-01       1.09658e-03       8.62786e+02
  1.500      2.73554e+02       2.41960e+00       3.11590e-01       1.08538e-03       8.52133e+02
  1.600      2.73188e+02       2.36498e+00       3.22657e-01       1.07339e-03       8.41590e+02
  1.700      2.73008e+02       2.32833e+00       2.63167e-01       1.06078e-03       8.31158e+02
  1.800      2.72925e+02       2.29723e+00       1.15062e-01       1.04793e-03       8.20842e+02
  1.900      2.72849e+02       2.25925e+00      -1.39710e-01       1.03520e-03       8.10641e+02
  2.000      2.72690e+02       2.20196e+00      -5.19198e-01       1.02292e-03       8.00560e+02
  2.100      2.72376e+02       2.11733e+00      -1.03194e+00       1.01136e-03       7.90597e+02
  2.200      2.71917e+02       2.01827e+00      -1.64146e+00       1.00045e-03       7.80750e+02
  2.300      2.71348e+02       1.92387e+00      -2.29799e+00       9.90041e-04       7.71013e+02
  2.400      2.70705e+02       1.85323e+00      -2.95177e+00       9.79994e-04       7.61381e+02
  2.500      2.70024e+02       1.82542e+00      -3.55300e+00       9.70166e-04       7.51849e+02
  2.600      2.69338e+02       1.85643e+00      -4.05950e+00       9.60429e-04       7.42413e+02
  2.700      2.68674e+02       1.93972e+00      -4.48403e+00       9.50693e-04       7.33073e+02
  2.800      2.68052e+02       2.05873e+00      -4.86370e+00       9.40886e-04       7.23832e+02
  2.900      2.67495e+02       2.19690e+00      -5.23574e+00       9.30938e-04       7.14690e+02
  3.000      2.67023e+02       2.33765e+00      -5.63734e+00       9.20784e-04       7.05649e+02
  3.100      2.66660e+02       2.46448e+00      -6.10512e+00       9.10361e-04       6.96712e+02
  3.200      2.66403e+02       2.56502e+00      -6.64643e+00       8.99685e-04       6.87878e+02
  3.300      2.66220e+02       2.63270e+00      -7.22749e+00       8.88875e-04       6.79147e+02
  3.400      2.66077e+02       2.66137e+00      -7.81142e+00       8.78054e-04       6.70517e+02
  3.500      2.65937e+02       2.64490e+00      -8.36131e+00       8.67339e-04       6.61987e+02
  3.600      2.65767e+02       2.57714e+00      -8.84027e+00       8.56842e-04       6.53556e+02
  3.700      2.65532e+02       2.45248e+00      -9.21342e+00       8.46663e-04       6.45223e+02
  3.800      2.65227e+02       2.27401e+00      -9.47888e+00       8.36818e-04       6.36987e+02
  3.900      2.64864e+02       2.05197e+00      -9.66194e+00       8.27255e-04       6.28845e+02
  4.000      2.64458e+02       1.79683e+00      -9.78873e+00       8.17920e-04       6.20796e+02
  4.100      2.64023e+02       1.51904e+00      -9.88534e+00       8.08764e-04       6.12839e+02
  4.200      2.63576e+02       1.22908e+00      -9.97789e+00       7.99738e-04       6.04971e+02
  4.300      2.63128e+02       9.37315e-01      -1.00923e+01       7.90796e-04       5.97192e+02
  4.400      2.62688e+02       6.50752e-01      -1.02442e+01       7.81917e-04       5.89499e+02
  4.500      2.62250e+02       3.71483e-01      -1.04349e+01       7.73118e-04       5.81893e+02
  4.600      2.61807e+02       1.01232e-01      -1.06641e+01       7.64415e-04       5.74371e+02
  4.700      2.61353e+02      -1.58281e-01      -1.09320e+01       7.55827e-04       5.66933e+02
  4.800      2.60882e+02      -4.05334e-01      -1.12385e+01       7.47369e-04       5.59578e+02
  4.900      2.60387e+02      -6.38202e-01      -1.15836e+01       7.39057e-04       5.52305e+02
  5.000      2.59862e+02      -8.55090e-01      -1.19661e+01       7.30905e-04       5.45112e+02
  5.100      2.59306e+02      -1.05336e+00      -1.23730e+01       7.22915e-04       5.37999e+02
  5.200      2.58718e+02      -1.22986e+00      -1.27837e+01       7.15083e-04       5.30963e+02
  5.300      2.58098e+02      -1.38142e+00      -1.31775e+01       7.07404e-04       5.24004e+02
  5.400      2.57448e+02      -1.50488e+00      -1.35337e+01       6.99874e-04       5.17120e+02
  5.500      2.56767e+02      -1.59708e+00      -1.38318e+01       6.92489e-04       5.10310e+02
  5.600      2.56056e+02      -1.65484e+00      -1.40509e+01       6.85244e-04       5.03572e+02
  5.700      2.55314e+02      -1.67512e+00      -1.41714e+01       6.78135e-04       4.96904e+02
  5.800      2.54544e+02      -1.65795e+00      -1.41986e+01       6.71155e-04       4.90307e+02
  5.900      2.53751e+02      -1.60669e+00      -1.41653e+01       6.64289e-04       4.83778e+02
  6.000      2.52937e+02      -1.52489e+00      -1.41057e+01       6.57526e-04       4.77316e+02
  6.100      2.52106e+02      -1.41612e+00      -1.40540e+01       6.50852e-04       4.70921e+02
  6.200      2.51264e+02      -1.28391e+00      -1.40445e+01       6.44255e-04       4.64590e+02
  6.300      2.50413e+02      -1.13181e+00      -1.41113e+01       6.37725e-04       4.58324e+02
  6.400      2.49558e+02      -9.63380e-01      -1.42886e+01       6.31248e-04       4.52120e+02
  6.500      2.48702e+02      -7.81979e-01      -1.46079e+01       6.24816e-04       4.45978e+02
  6.600      2.47847e+02      -5.88729e-01      -1.50667e+01       6.18424e-04       4.39898e+02
  6.700      2.46991e+02      -3.83263e-01      -1.56399e+01       6.12075e-04       4.33879e+02
  6.800      2.46135e+02      -1.65187e-01      -1.63021e+01       6.05771e-04       4.27921e+02
  6.900      2.45277e+02       6.58911e-02      -1.70279e+01       5.99515e-04       4.22025e+02
  7.000      2.44416e+02       3.10365e-01      -1.77920e+01       5.93308e-04       4.16191e+02
  7.100      2.43552e+02       5.68627e-01      -1.85688e+01       5.87153e-04       4.10417e+02
  7.200      2.42685e+02       8.41073e-01      -1.93330e+01       5.81050e-04       4.04704e+02
  7.300      2.41812e+02       1.12810e+00      -2.00591e+01       5.75003e-04       3.99053e+02
  7.400      2.40936e+02       1.43062e+00      -2.07293e+01       5.69010e-04       3.93462e+02
  7.500      2.40058e+02       1.75086e+00      -2.13437e+01       5.63063e-04       3.87931e+02
  7.600      2.39182e+02       2.09121e+00      -2.19050e+01       5.57155e-04       3.82460e+02
  7.700      2.38312e+02       2.45410e+00      -2.24162e+01       5.51277e-04       3.77048e+02
  7.800      2.37450e+02       2.84191e+00      -2.28801e+01       5.45421e-04       3.71694e+02
  7.900      2.36600e+02       3.25706e+00      -2.32995e+01       5.39580e-04       3.66397e+02
  8.000      2.35765e+02       3.70195e+00      -2.36773e+01       5.33746e-04       3.61158e+02
  8.100      2.34950e+02       4.17898e+00      -2.40163e+01       5.27913e-04       3.55975e+02
  8.200      2.34156e+02       4.69057e+00      -2.43193e+01       5.22073e-04       3.50848e+02
  8.300      2.33387e+02       5.23822e+00      -2.45899e+01       5.16221e-04       3.45776e+02
  8.400      2.32643e+02       5.81749e+00      -2.48353e+01       5.10361e-04       3.40760e+02
  8.500      2.31920e+02       6.42153e+00      -2.50643e+01       5.04498e-04       3.35800e+02
  8.600      2.31218e+02       7.04344e+00      -2.52859e+01       4.98639e-04       3.30895e+02
  8.700      2.30534e+02       7.67635e+00      -2.55089e+01       4.92791e-04       3.26047e+02
  8.800      2.29866e+02       8.31341e+00      -2.57422e+01       4.86958e-04       3.21255e+02
  8.900      2.29213e+02       8.94772e+00      -2.59946e+01       4.81148e-04       3.16519e+02
  9.000      2.28571e+02       9.57242e+00      -2.62751e+01       4.75366e-04       3.11839e+02
  9.100      2.27939e+02       1.01806e+01      -2.65926e+01       4.69616e-04       3.07215e+02
  9.200      2.27315e+02       1.07655e+01      -2.69558e+01       4.63904e-04       3.02648e+02
  9.300      2.26697e+02       1.13203e+01      -2.73734e+01       4.58236e-04       2.98137e+02
  9.400      2.26085e+02       1.18439e+01      -2.78459e+01       4.52611e-04       2.93683e+02
  9.500      2.25481e+02       1.23422e+01      -2.83632e+01       4.47027e-04       2.89284e+02
  9.600      2.24887e+02       1.28216e+01      -2.89147e+01       4.41477e-04       2.84941e+02
  9.700      2.24307e+02       1.32884e+01      -2.94898e+01       4.35959e-04       2.80654e+02
  9.800      2.23743e+02       1.37490e+01      -3.00778e+01       4.30467e-04       2.76422e+02
  9.900      2.23197e+02       1.42097e+01      -3.06682e+01       4.24999e-04       2.72244e+02
 10.000      2.22672e+02       1.46769e+01      -3.12502e+01       4.19551e-04       2.68122e+02
 10.100      2.22170e+02       1.51570e+01      -3.18132e+01       4.14119e-04       2.64054e+02
 10.200      2.21694e+02       1.56562e+01      -3.23466e+01       4.08700e-04       2.60040e+02
 10.300      2.21246e+02       1.61809e+01      -3.28399e+01       4.03291e-04       2.56080e+02
 10.400      2.20828e+02       1.67376e+01      -3.32822e+01       3.97889e-04       2.52173e+02
 10.500      2.20444e+02       1.73322e+01      -3.36633e+01       3.92491e-04       2.48319e+02
 10.600      2.20093e+02       1.79633e+01      -3.39780e+01       3.87099e-04       2.44518e+02
 10.700      2.19773e+02       1.86204e+01      -3.42279e+01       3.81720e-04       2.40769e+02
 10.800      2.19480e+02       1.92926e+01      -3.44146e+01       3.76360e-04       2.37072e+02
 10.900      2.19213e+02       1.99689e+01      -3.45401e+01       3.71025e-04       2.33427e+02
 11.000      2.18967e+02       2.06383e+01      -3.46060e+01       3.65721e-04       2.29832e+02
 11.100      2.18740e+02       2.12898e+01      -3.46143e+01       3.60455e-04       2.26288e+02
 11.200      2.18530e+02       2.19125e+01      -3.45666e+01       3.55230e-04       2.22794e+02
 11.300      2.18334e+02       2.24954e+01      -3.44647e+01       3.50053e-04       2.19349e+02
 11.400      2.18148e+02       2.30275e+01      -3.43106e+01       3.44928e-04       2.15954e+02
 11.500      2.17970e+02       2.34979e+01      -3.41059e+01       3.39860e-04       2.12607e+02
 11.600      2.17796e+02       2.38955e+01      -3.38524e+01       3.34853e-04       2.09308e+02
 11.700      2.17625e+02       2.42095e+01      -3.35520e+01       3.29911e-04       2.06057e+02
 11.800      2.17453e+02       2.44287e+01      -3.32064e+01       3.25038e-04       2.02854e+02
 11.900      2.17278e+02       2.45424e+01      -3.28174e+01       3.20238e-04       1.99696e+02
 12.000      2.17097e+02       2.45436e+01      -3.23873e+01       3.15512e-04       1.96586e+02
 12.100      2.16911e+02       2.44385e+01      -3.19195e+01       3.10859e-04       1.93520e+02
 12.200      2.16720e+02       2.42353e+01      -3.14177e+01       3.06277e-04       1.90500e+02
 12.300      2.16525e+02       2.39424e+01      -3.08857e+01       3.01764e-04       1.87524e+02
 12.400      2.16328e+02       2.35682e+01      -3.03271e+01       2.97318e-04       1.84593e+02
 12.500      2.16128e+02       2.31211e+01      -2.97457e+01       2.92936e-04       1.81704e+02
 12.600      2.15926e+02       2.26092e+01      -2.91453e+01       2.88618e-04       1.78859e+02
 12.700      2.15724e+02       2.20411e+01      -2.85294e+01       2.84361e-04       1.76056e+02
 12.800      2.15521e+02       2.14251e+01      -2.79018e+01       2.80164e-04       1.73294e+02
 12.900      2.15320e+02       2.07695e+01      -2.72663e+01       2.76025e-04       1.70574e+02
 13.000      2.15119e+02       2.00827e+01      -2.66266e+01       2.71942e-04       1.67895e+02
 13.100      2.14921e+02       1.93729e+01      -2.59863e+01       2.67913e-04       1.65255e+02
 13.200      2.14726e+02       1.86487e+01      -2.53492e+01       2.63938e-04       1.62656e+02
 13.300      2.14535e+02       1.79183e+01      -2.47191e+01       2.60015e-04       1.60095e+02
 13.400      2.14348e+02       1.71901e+01      -2.40995e+01       2.56142e-04       1.57573e+02
 13.500      2.14166e+02       1.64723e+01      -2.34943e+01       2.52319e-04       1.55089e+02
 13.600      2.13990e+02       1.57735e+01      -2.29071e+01       2.48543e-04       1.52643e+02
 13.700      2.13821e+02       1.51019e+01      -2.23417e+01       2.44813e-04       1.50234e+02
 13.800      2.13659e+02       1.44647e+01      -2.18012e+01       2.41130e-04       1.47861e+02
 13.900      2.13505e+02       1.38627e+01      -2.12856e+01       2.37491e-04       1.45525e+02
 14.000      2.13358e+02       1.32944e+01      -2.07937e+01       2.33896e-04       1.43224e+02
 14.100      2.13219e+02       1.27586e+01      -2.03245e+01       2.30347e-04       1.40958e+02
 14.200      2.13088e+02       1.22538e+01      -1.98768e+01       2.26841e-04       1.38728e+02
 14.300      2.12964e+02       1.17787e+01      -1.94497e+01       2.23379e-04       1.36531e+02
 14.400      2.12848e+02       1.13319e+01      -1.90419e+01       2.19961e-04       1.34369e+02
 14.500      2.12740e+02       1.09120e+01      -1.86523e+01       2.16586e-04       1.32240e+02
 14.600      2.12639e+02       1.05176e+01      -1.82800e+01       2.13254e-04       1.30144e+02
 14.700      2.12546e+02       1.01475e+01      -1.79238e+01       2.09965e-04       1.28080e+02
 14.800      2.12461e+02       9.80010e+00      -1.75826e+01       2.06718e-04       1.26049e+02
 14.900      2.12384e+02       9.47416e+00      -1.72552e+01       2.03512e-04       1.24049e+02
 15.000      2.12315e+02       9.16828e+00      -1.69407e+01       2.00349e-04       1.22081e+02
 15.100      2.12253e+02       8.88108e+00      -1.66379e+01       1.97227e-04       1.20144e+02
 15.200      2.12200e+02       8.61120e+00      -1.63457e+01       1.94146e-04       1.18237e+02
 15.300      2.12154e+02       8.35725e+00      -1.60630e+01       1.91105e-04       1.16360e+02
 15.400      2.12116e+02       8.11787e+00      -1.57887e+01       1.88105e-04       1.14513e+02
 15.500      2.12086e+02       7.89167e+00      -1.55217e+01       1.85145e-04       1.12696e+02
 15.600      2.12064e+02       7.67730e+00      -1.52610e+01       1.82225e-04       1.10907e+02
 15.700      2.12051e+02       7.47337e+00      -1.50054e+01       1.79344e-04       1.09146e+02
 15.800      2.12045e+02       7.27851e+00      -1.47539e+01       1.76502e-04       1.07414e+02
 15.900      2.12047e+02       7.09135e+00      -1.45053e+01       1.73699e-04       1.05709e+02
 16.000      2.12058e+02       6.91052e+00      -1.42585e+01       1.70934e-04       1.04031e+02
 16.100      2.12076e+02       6.73463e+00      -1.40125e+01       1.68207e-04       1.02381e+02
 16.200      2.12103e+02       6.56233e+00      -1.37662e+01       1.65518e-04       1.00757e+02
 16.300      2.12138e+02       6.39226e+00      -1.35184e+01       1.62866e-04       9.91588e+01
 16.400      2.12181e+02       6.22379e+00      -1.32687e+01       1.60251e-04       9.75865e+01
 16.500      2.12231e+02       6.05692e+00      -1.30169e+01       1.57674e-04       9.60396e+01
 16.600      2.12288e+02       5.89166e+00      -1.27630e+01       1.55133e-04       9.45175e+01
 16.700      2.12351e+02       5.72805e+00      -1.25070e+01       1.52630e-04       9.30198e+01
 16.800      2.12419e+02       5.56610e+00      -1.22488e+01       1.50164e-04       9.15463e+01
 16.900      2.12492e+02       5.40585e+00      -1.19883e+01       1.47735e-04       9.00963e+01
 17.000      2.12570e+02       5.24731e+00      -1.17255e+01       1.45342e-04       8.86695e+01
 17.100      2.12651e+02       5.09051e+00      -1.14604e+01       1.42986e-04       8.72655e+01
 17.200      2.12735e+02       4.93547e+00      -1.11928e+01       1.40667e-04       8.58840e+01
 17.300      2.12822e+02       4.78223e+00      -1.09227e+01       1.38384e-04       8.45247e+01
 17.400      2.12910e+02       4.63079e+00      -1.06501e+01       1.36137e-04       8.31870e+01
 17.500      2.13000e+02       4.48119e+00      -1.03749e+01       1.33926e-04       8.18706e+01
 17.600      2.13091e+02       4.33346e+00      -1.00971e+01       1.31751e-04       8.05752e+01
 17.700      2.13181e+02       4.18760e+00      -9.81657e+00       1.29612e-04       7.93005e+01
 17.800      2.13271e+02       4.04366e+00      -9.53330e+00       1.27508e-04       7.80461e+01
 17.900      2.13360e+02       3.90165e+00      -9.24722e+00       1.25439e-04       7.68116e+01
 18.000      2.13448e+02       3.76160e+00      -8.95829e+00       1.23404e-04       7.55967e+01
 18.100      2.13533e+02       3.62353e+00      -8.66643e+00       1.21404e-04       7.44011e+01
 18.200      2.13615e+02       3.48747e+00      -8.37161e+00       1.19438e-04       7.32246e+01
 18.300      2.13693e+02       3.35343e+00      -8.07377e+00       1.17506e-04       7.20667e+01
 18.400      2.13768e+02       3.22145e+00      -7.77284e+00       1.15608e-04       7.09271e+01
 18.500      2.13837e+02       3.09155e+00      -7.46878e+00       1.13743e-04       6.98056e+01
 18.600      2.13902e+02       2.96381e+00      -7.16185e+00       1.11911e-04       6.87018e+01
 18.700      2.13962e+02       2.83843e+00      -6.85306e+00       1.10111e-04       6.76157e+01
 18.800      2.14017e+02       2.71566e+00      -6.54353e+00       1.08342e-04       6.65469e+01
 18.900      2.14069e+02       2.59572e+00      -6.23438e+00       1.06604e-04       6.54952e+01
 19.000      2.14117e+02       2.47884e+00      -5.92673e+00       1.04896e-04       6.44604e+01
 19.100      2.14162e+02       2.36525e+00      -5.62170e+00       1.03218e-04       6.34424e+01
 19.200      2.14204e+02       2.25519e+00      -5.32040e+00       1.01568e-04       6.24408e+01
 19.300      2.14244e+02       2.14889e+00      -5.02398e+00       9.99471e-05       6.14556e+01
 19.400      2.14282e+02       2.04657e+00      -4.73354e+00       9.83535e-05       6.04865e+01
 19.500      2.14319e+02       1.94846e+00      -4.45019e+00       9.67870e-05       5.95332e+01
 19.600      2.14354e+02       1.85481e+00      -4.17508e+00       9.52471e-05       5.85957e+01
 19.700      2.14389e+02       1.76583e+00      -3.90930e+00       9.37330e-05       5.76736e+01
 19.800      2.14423e+02       1.68177e+00      -3.65400e+00       9.22444e-05       5.67667e+01
 19.900      2.14458e+02       1.60285e+00      -3.41028e+00       9.07807e-05       5.58750e+01
 20.000      2.14493e+02       1.52930e+00      -3.17927e+00       8.93414e-05       5.49980e+01
 20.100      2.14529e+02       1.46135e+00      -2.96208e+00       8.79260e-05       5.41358e+01
 20.200      2.14566e+02       1.39923e+00      -2.75985e+00       8.65340e-05       5.32880e+01
 20.300      2.14605e+02       1.34319e+00      -2.57368e+00       8.51650e-05       5.24544e+01
