# Data Source: NASA MERRA (version 1)
# Model Time = 2010-03-01 06:00:00
# Location = [  39.7393, -104.9900 ]
# Fields = [ Z(km), T(K), U(m/s), V(m/s), R(g/cm3), P(mbar) ]
# Ground Height = 1.589
  0.000      2.83361e+02      -8.37675e-01      -1.53132e+00       1.25362e-03       1.01950e+03
  0.100      2.82690e+02      -8.09100e-01      -1.50893e+00       1.24149e-03       1.00725e+03
  0.200      2.82017e+02      -7.74507e-01      -1.47758e+00       1.22950e-03       9.95143e+02
  0.300      2.81345e+02      -7.43972e-01      -1.45226e+00       1.21762e-03       9.83181e+02
  0.400      2.80680e+02      -7.27507e-01      -1.44790e+00       1.20581e-03       9.71346e+02
  0.500      2.80027e+02      -7.30336e-01      -1.47381e+00       1.19405e-03       9.59628e+02
  0.600      2.79391e+02      -7.49803e-01      -1.53008e+00       1.18229e-03       9.48019e+02
  0.700      2.78763e+02      -7.89196e-01      -1.60357e+00       1.17057e-03       9.36517e+02
  0.800      2.78095e+02      -8.67976e-01      -1.65133e+00       1.15911e-03       9.25124e+02
  0.900      2.77355e+02      -9.92335e-01      -1.63790e+00       1.14803e-03       9.13842e+02
  1.000      2.76606e+02      -1.10369e+00      -1.57715e+00       1.13707e-03       9.02672e+02
  1.100      2.75927e+02      -1.13565e+00      -1.49526e+00       1.12590e-03       8.91612e+02
  1.200      2.75322e+02      -1.09719e+00      -1.41472e+00       1.11452e-03       8.80662e+02
  1.300      2.74757e+02      -1.03510e+00      -1.35619e+00       1.10306e-03       8.69823e+02
  1.400      2.74197e+02      -9.96440e-01      -1.34029e+00       1.09168e-03       8.59094e+02
  1.500      2.73607e+02      -1.02824e+00      -1.38765e+00       1.08051e-03       8.48475e+02
  1.600      2.72966e+02      -1.15379e+00      -1.51174e+00       1.06964e-03       8.37966e+02
  1.700      2.72284e+02      -1.33439e+00      -1.70732e+00       1.05900e-03       8.27563e+02
  1.800      2.71577e+02      -1.52131e+00      -1.96616e+00       1.04855e-03       8.17265e+02
  1.900      2.70861e+02      -1.66583e+00      -2.28001e+00       1.03820e-03       8.07067e+02
  2.000      2.70152e+02      -1.71961e+00      -2.64059e+00       1.02790e-03       7.96969e+02
  2.100      2.69463e+02      -1.66366e+00      -3.03716e+00       1.01760e-03       7.86968e+02
  2.200      2.68806e+02      -1.52855e+00      -3.45481e+00       1.00725e-03       7.77067e+02
  2.300      2.68190e+02      -1.34963e+00      -3.87821e+00       9.96832e-04       7.67268e+02
  2.400      2.67626e+02      -1.16224e+00      -4.29206e+00       9.86312e-04       7.57572e+02
  2.500      2.67123e+02      -1.00167e+00      -4.68106e+00       9.75659e-04       7.47983e+02
  2.600      2.66684e+02      -8.89436e-01      -5.03634e+00       9.64876e-04       7.38501e+02
  2.700      2.66293e+02      -8.17291e-01      -5.36290e+00       9.54026e-04       7.29125e+02
  2.800      2.65930e+02      -7.73118e-01      -5.66751e+00       9.43180e-04       7.19854e+02
  2.900      2.65579e+02      -7.44793e-01      -5.95699e+00       9.32404e-04       7.10688e+02
  3.000      2.65219e+02      -7.20197e-01      -6.23811e+00       9.21764e-04       7.01626e+02
  3.100      2.64834e+02      -6.88667e-01      -6.51795e+00       9.11315e-04       6.92667e+02
  3.200      2.64424e+02      -6.49697e-01      -6.80556e+00       9.01058e-04       6.83809e+02
  3.300      2.63992e+02      -6.07088e-01      -7.11080e+00       8.90974e-04       6.75052e+02
  3.400      2.63542e+02      -5.64657e-01      -7.44355e+00       8.81044e-04       6.66392e+02
  3.500      2.63080e+02      -5.26223e-01      -7.81367e+00       8.71250e-04       6.57828e+02
  3.600      2.62610e+02      -4.95601e-01      -8.23105e+00       8.61574e-04       6.49359e+02
  3.700      2.62134e+02      -4.77490e-01      -8.69804e+00       8.52005e-04       6.40984e+02
  3.800      2.61651e+02      -4.79388e-01      -9.19302e+00       8.42545e-04       6.32701e+02
  3.900      2.61160e+02      -5.09352e-01      -9.68961e+00       8.33201e-04       6.24509e+02
  4.000      2.60658e+02      -5.75438e-01      -1.01614e+01       8.23978e-04       6.16408e+02
  4.100      2.60142e+02      -6.85703e-01      -1.05821e+01       8.14882e-04       6.08397e+02
  4.200      2.59611e+02      -8.48202e-01      -1.09253e+01       8.05918e-04       6.00475e+02
  4.300      2.59061e+02      -1.06625e+00      -1.11681e+01       7.97090e-04       5.92641e+02
  4.400      2.58493e+02      -1.32039e+00      -1.13055e+01       7.88401e-04       5.84894e+02
  4.500      2.57903e+02      -1.58435e+00      -1.13372e+01       7.79851e-04       5.77231e+02
  4.600      2.57291e+02      -1.83188e+00      -1.12633e+01       7.71441e-04       5.69651e+02
  4.700      2.56654e+02      -2.03671e+00      -1.10836e+01       7.63174e-04       5.62151e+02
  4.800      2.55992e+02      -2.17256e+00      -1.07982e+01       7.55048e-04       5.54731e+02
  4.900      2.55302e+02      -2.21351e+00      -1.04072e+01       7.47066e-04       5.47388e+02
  5.000      2.54587e+02      -2.15077e+00      -9.92119e+00       7.39218e-04       5.40121e+02
  5.100      2.53853e+02      -2.00049e+00      -9.36589e+00       7.31486e-04       5.32930e+02
  5.200      2.53106e+02      -1.78080e+00      -8.76829e+00       7.23849e-04       5.25815e+02
  5.300      2.52354e+02      -1.50981e+00      -8.15535e+00       7.16285e-04       5.18774e+02
  5.400      2.51603e+02      -1.20567e+00      -7.55405e+00       7.08777e-04       5.11807e+02
  5.500      2.50859e+02      -8.86479e-01      -6.99134e+00       7.01305e-04       5.04915e+02
  5.600      2.50129e+02      -5.70315e-01      -6.49408e+00       6.93852e-04       4.98095e+02
  5.700      2.49416e+02      -2.69872e-01      -6.07805e+00       6.86410e-04       4.91349e+02
  5.800      2.48715e+02       1.17593e-02      -5.73931e+00       6.78994e-04       4.84674e+02
  5.900      2.48020e+02       2.72474e-01      -5.47186e+00       6.71621e-04       4.78071e+02
  6.000      2.47325e+02       5.10176e-01      -5.26972e+00       6.64305e-04       4.71540e+02
  6.100      2.46626e+02       7.22763e-01      -5.12688e+00       6.57062e-04       4.65079e+02
  6.200      2.45915e+02       9.08137e-01      -5.03734e+00       6.49906e-04       4.58688e+02
  6.300      2.45187e+02       1.06420e+00      -4.99513e+00       6.42852e-04       4.52367e+02
  6.400      2.44438e+02       1.18911e+00      -4.99397e+00       6.35911e-04       4.46115e+02
  6.500      2.43666e+02       1.28465e+00      -5.02404e+00       6.29083e-04       4.39931e+02
  6.600      2.42874e+02       1.35521e+00      -5.07292e+00       6.22360e-04       4.33814e+02
  6.700      2.42064e+02       1.40524e+00      -5.12812e+00       6.15732e-04       4.27763e+02
  6.800      2.41239e+02       1.43920e+00      -5.17717e+00       6.09189e-04       4.21776e+02
  6.900      2.40403e+02       1.46155e+00      -5.20759e+00       6.02725e-04       4.15854e+02
  7.000      2.39557e+02       1.47673e+00      -5.20689e+00       5.96329e-04       4.09994e+02
  7.100      2.38705e+02       1.48920e+00      -5.16259e+00       5.89994e-04       4.04195e+02
  7.200      2.37849e+02       1.50338e+00      -5.06227e+00       5.83712e-04       3.98457e+02
  7.300      2.36990e+02       1.52125e+00      -4.89891e+00       5.77479e-04       3.92780e+02
  7.400      2.36127e+02       1.54019e+00      -4.67541e+00       5.71300e-04       3.87162e+02
  7.500      2.35258e+02       1.55713e+00      -4.39575e+00       5.65179e-04       3.81603e+02
  7.600      2.34380e+02       1.56899e+00      -4.06392e+00       5.59120e-04       3.76104e+02
  7.700      2.33492e+02       1.57268e+00      -3.68389e+00       5.53128e-04       3.70664e+02
  7.800      2.32592e+02       1.56512e+00      -3.25964e+00       5.47207e-04       3.65283e+02
  7.900      2.31678e+02       1.54324e+00      -2.79515e+00       5.41361e-04       3.59960e+02
  8.000      2.30748e+02       1.50394e+00      -2.29441e+00       5.35594e-04       3.54696e+02
  8.100      2.29800e+02       1.44415e+00      -1.76138e+00       5.29910e-04       3.49490e+02
  8.200      2.28834e+02       1.36240e+00      -1.20218e+00       5.24308e-04       3.44341e+02
  8.300      2.27855e+02       1.26206e+00      -6.29215e-01       5.18774e-04       3.39249e+02
  8.400      2.26870e+02       1.14739e+00      -5.61070e-02       5.13292e-04       3.34213e+02
  8.500      2.25885e+02       1.02263e+00       5.03558e-01       5.07846e-04       3.29231e+02
  8.600      2.24906e+02       8.92054e-01       1.03617e+00       5.02421e-04       3.24302e+02
  8.700      2.23939e+02       7.59919e-01       1.52813e+00       4.97001e-04       3.19425e+02
  8.800      2.22992e+02       6.30480e-01       1.96585e+00       4.91572e-04       3.14600e+02
  8.900      2.22070e+02       5.07998e-01       2.33571e+00       4.86120e-04       3.09825e+02
  9.000      2.21180e+02       3.96729e-01       2.62412e+00       4.80632e-04       3.05099e+02
  9.100      2.20329e+02       3.00932e-01       2.81747e+00       4.75094e-04       3.00423e+02
  9.200      2.19521e+02       2.24289e-01       2.90507e+00       4.69496e-04       2.95794e+02
  9.300      2.18763e+02       1.67442e-01       2.89145e+00       4.63831e-04       2.91216e+02
  9.400      2.18059e+02       1.30040e-01       2.78614e+00       4.58098e-04       2.86691e+02
  9.500      2.17414e+02       1.11730e-01       2.59869e+00       4.52294e-04       2.82222e+02
  9.600      2.16833e+02       1.12158e-01       2.33861e+00       4.46418e-04       2.77810e+02
  9.700      2.16319e+02       1.30973e-01       2.01546e+00       4.40468e-04       2.73459e+02
  9.800      2.15879e+02       1.67821e-01       1.63876e+00       4.34443e-04       2.69169e+02
  9.900      2.15517e+02       2.22350e-01       1.21805e+00       4.28342e-04       2.64944e+02
 10.000      2.15237e+02       2.94208e-01       7.62865e-01       4.22165e-04       2.60784e+02
 10.100      2.15044e+02       3.83041e-01       2.82739e-01       4.15912e-04       2.56691e+02
 10.200      2.14943e+02       4.88495e-01      -2.12788e-01       4.09584e-04       2.52667e+02
 10.300      2.14939e+02       6.10205e-01      -7.14234e-01       4.03181e-04       2.48712e+02
 10.400      2.15030e+02       7.46757e-01      -1.21484e+00       3.96715e-04       2.44827e+02
 10.500      2.15207e+02       8.95107e-01      -1.71217e+00       3.90209e-04       2.41011e+02
 10.600      2.15459e+02       1.05207e+00      -2.20416e+00       3.83688e-04       2.37260e+02
 10.700      2.15776e+02       1.21444e+00      -2.68874e+00       3.77175e-04       2.33575e+02
 10.800      2.16146e+02       1.37904e+00      -3.16387e+00       3.70691e-04       2.29954e+02
 10.900      2.16559e+02       1.54268e+00      -3.62747e+00       3.64256e-04       2.26394e+02
 11.000      2.17004e+02       1.70217e+00      -4.07750e+00       3.57890e-04       2.22894e+02
 11.100      2.17472e+02       1.85432e+00      -4.51188e+00       3.51608e-04       2.19454e+02
 11.200      2.17950e+02       1.99593e+00      -4.92855e+00       3.45429e-04       2.16071e+02
 11.300      2.18429e+02       2.12381e+00      -5.32546e+00       3.39365e-04       2.12745e+02
 11.400      2.18898e+02       2.23479e+00      -5.70054e+00       3.33431e-04       2.09474e+02
 11.500      2.19345e+02       2.32566e+00      -6.05173e+00       3.27639e-04       2.06256e+02
 11.600      2.19762e+02       2.39324e+00      -6.37698e+00       3.22000e-04       2.03091e+02
 11.700      2.20136e+02       2.43434e+00      -6.67421e+00       3.16524e-04       1.99977e+02
 11.800      2.20460e+02       2.44684e+00      -6.94197e+00       3.11218e-04       1.96913e+02
 11.900      2.20734e+02       2.43289e+00      -7.18112e+00       3.06073e-04       1.93899e+02
 12.000      2.20961e+02       2.39563e+00      -7.39310e+00       3.01080e-04       1.90932e+02
 12.100      2.21145e+02       2.33825e+00      -7.57934e+00       2.96230e-04       1.88013e+02
 12.200      2.21288e+02       2.26390e+00      -7.74127e+00       2.91514e-04       1.85139e+02
 12.300      2.21394e+02       2.17575e+00      -7.88034e+00       2.86923e-04       1.82311e+02
 12.400      2.21465e+02       2.07696e+00      -7.99797e+00       2.82451e-04       1.79527e+02
 12.500      2.21504e+02       1.97070e+00      -8.09561e+00       2.78089e-04       1.76786e+02
 12.600      2.21515e+02       1.86014e+00      -8.17469e+00       2.73830e-04       1.74087e+02
 12.700      2.21501e+02       1.74843e+00      -8.23664e+00       2.69668e-04       1.71430e+02
 12.800      2.21464e+02       1.63875e+00      -8.28291e+00       2.65597e-04       1.68813e+02
 12.900      2.21407e+02       1.53425e+00      -8.31492e+00       2.61609e-04       1.66237e+02
 13.000      2.21334e+02       1.43811e+00      -8.33411e+00       2.57700e-04       1.63699e+02
 13.100      2.21248e+02       1.35349e+00      -8.34192e+00       2.53865e-04       1.61200e+02
 13.200      2.21152e+02       1.28355e+00      -8.33978e+00       2.50097e-04       1.58738e+02
 13.300      2.21048e+02       1.23146e+00      -8.32912e+00       2.46392e-04       1.56313e+02
 13.400      2.20939e+02       1.20039e+00      -8.31140e+00       2.42745e-04       1.53924e+02
 13.500      2.20830e+02       1.19349e+00      -8.28803e+00       2.39151e-04       1.51570e+02
 13.600      2.20722e+02       1.21391e+00      -8.26044e+00       2.35607e-04       1.49251e+02
 13.700      2.20618e+02       1.26290e+00      -8.22967e+00       2.32110e-04       1.46966e+02
 13.800      2.20517e+02       1.33876e+00      -8.19606e+00       2.28659e-04       1.44715e+02
 13.900      2.20420e+02       1.43950e+00      -8.15992e+00       2.25254e-04       1.42497e+02
 14.000      2.20325e+02       1.56317e+00      -8.12156e+00       2.21895e-04       1.40311e+02
 14.100      2.20233e+02       1.70778e+00      -8.08129e+00       2.18581e-04       1.38158e+02
 14.200      2.20143e+02       1.87135e+00      -8.03939e+00       2.15314e-04       1.36037e+02
 14.300      2.20055e+02       2.05192e+00      -7.99620e+00       2.12091e-04       1.33947e+02
 14.400      2.19969e+02       2.24750e+00      -7.95199e+00       2.08913e-04       1.31889e+02
 14.500      2.19884e+02       2.45612e+00      -7.90709e+00       2.05780e-04       1.29861e+02
 14.600      2.19801e+02       2.67582e+00      -7.86179e+00       2.02691e-04       1.27863e+02
 14.700      2.19719e+02       2.90461e+00      -7.81640e+00       1.99647e-04       1.25896e+02
 14.800      2.19637e+02       3.14052e+00      -7.77123e+00       1.96646e-04       1.23957e+02
 14.900      2.19556e+02       3.38157e+00      -7.72658e+00       1.93689e-04       1.22048e+02
 15.000      2.19474e+02       3.62579e+00      -7.68275e+00       1.90775e-04       1.20167e+02
 15.100      2.19393e+02       3.87121e+00      -7.64005e+00       1.87903e-04       1.18315e+02
 15.200      2.19311e+02       4.11585e+00      -7.59879e+00       1.85075e-04       1.16490e+02
 15.300      2.19229e+02       4.35774e+00      -7.55926e+00       1.82288e-04       1.14693e+02
 15.400      2.19146e+02       4.59490e+00      -7.52178e+00       1.79543e-04       1.12923e+02
 15.500      2.19061e+02       4.82535e+00      -7.48664e+00       1.76840e-04       1.11180e+02
 15.600      2.18975e+02       5.04713e+00      -7.45416e+00       1.74178e-04       1.09463e+02
 15.700      2.18887e+02       5.25826e+00      -7.42464e+00       1.71556e-04       1.07773e+02
 15.800      2.18797e+02       5.45676e+00      -7.39838e+00       1.68975e-04       1.06107e+02
 15.900      2.18705e+02       5.64066e+00      -7.37568e+00       1.66434e-04       1.04468e+02
 16.000      2.18610e+02       5.80798e+00      -7.35686e+00       1.63932e-04       1.02853e+02
 16.100      2.18512e+02       5.95675e+00      -7.34221e+00       1.61469e-04       1.01262e+02
 16.200      2.18411e+02       6.08500e+00      -7.33204e+00       1.59046e-04       9.96963e+01
 16.300      2.18307e+02       6.19144e+00      -7.32625e+00       1.56660e-04       9.81542e+01
 16.400      2.18201e+02       6.27629e+00      -7.32379e+00       1.54312e-04       9.66356e+01
 16.500      2.18092e+02       6.33999e+00      -7.32351e+00       1.51999e-04       9.51401e+01
 16.600      2.17982e+02       6.38299e+00      -7.32425e+00       1.49722e-04       9.36675e+01
 16.700      2.17871e+02       6.40574e+00      -7.32485e+00       1.47479e-04       9.22174e+01
 16.800      2.17760e+02       6.40866e+00      -7.32414e+00       1.45270e-04       9.07894e+01
 16.900      2.17649e+02       6.39222e+00      -7.32096e+00       1.43092e-04       8.93833e+01
 17.000      2.17540e+02       6.35683e+00      -7.31416e+00       1.40947e-04       8.79986e+01
 17.100      2.17432e+02       6.30296e+00      -7.30258e+00       1.38831e-04       8.66350e+01
 17.200      2.17327e+02       6.23104e+00      -7.28504e+00       1.36746e-04       8.52923e+01
 17.300      2.17224e+02       6.14152e+00      -7.26039e+00       1.34690e-04       8.39701e+01
 17.400      2.17125e+02       6.03483e+00      -7.22748e+00       1.32662e-04       8.26681e+01
 17.500      2.17031e+02       5.91142e+00      -7.18513e+00       1.30661e-04       8.13860e+01
 17.600      2.16941e+02       5.77173e+00      -7.13219e+00       1.28688e-04       8.01235e+01
 17.700      2.16856e+02       5.61620e+00      -7.06750e+00       1.26740e-04       7.88803e+01
 17.800      2.16778e+02       5.44528e+00      -6.98990e+00       1.24819e-04       7.76562e+01
 17.900      2.16706e+02       5.25940e+00      -6.89822e+00       1.22922e-04       7.64507e+01
 18.000      2.16642e+02       5.05901e+00      -6.79130e+00       1.21049e-04       7.52636e+01
 18.100      2.16585e+02       4.84456e+00      -6.66799e+00       1.19200e-04       7.40947e+01
 18.200      2.16537e+02       4.61648e+00      -6.52712e+00       1.17375e-04       7.29437e+01
 18.300      2.16498e+02       4.37521e+00      -6.36753e+00       1.15571e-04       7.18103e+01
 18.400      2.16469e+02       4.12120e+00      -6.18807e+00       1.13791e-04       7.06942e+01
 18.500      2.16450e+02       3.85491e+00      -5.98759e+00       1.12031e-04       6.95952e+01
 18.600      2.16442e+02       3.57723e+00      -5.76619e+00       1.10294e-04       6.85130e+01
 18.700      2.16443e+02       3.28977e+00      -5.52569e+00       1.08578e-04       6.74475e+01
 18.800      2.16454e+02       2.99413e+00      -5.26805e+00       1.06883e-04       6.63985e+01
 18.900      2.16474e+02       2.69194e+00      -4.99522e+00       1.05212e-04       6.53658e+01
 19.000      2.16501e+02       2.38483e+00      -4.70916e+00       1.03562e-04       6.43491e+01
 19.100      2.16536e+02       2.07441e+00      -4.41181e+00       1.01935e-04       6.33484e+01
 19.200      2.16577e+02       1.76231e+00      -4.10512e+00       1.00331e-04       6.23634e+01
 19.300      2.16624e+02       1.45017e+00      -3.79107e+00       9.87497e-05       6.13939e+01
 19.400      2.16677e+02       1.13958e+00      -3.47158e+00       9.71913e-05       6.04398e+01
 19.500      2.16735e+02       8.32194e-01      -3.14861e+00       9.56560e-05       5.95008e+01
 19.600      2.16796e+02       5.29620e-01      -2.82413e+00       9.41437e-05       5.85768e+01
 19.700      2.16862e+02       2.33485e-01      -2.50008e+00       9.26546e-05       5.76676e+01
 19.800      2.16929e+02      -5.45813e-02      -2.17842e+00       9.11887e-05       5.67730e+01
 19.900      2.17000e+02      -3.32966e-01      -1.86109e+00       8.97459e-05       5.58927e+01
 20.000      2.17071e+02      -6.00040e-01      -1.55005e+00       8.83263e-05       5.50268e+01
 20.100      2.17144e+02      -8.54180e-01      -1.24726e+00       8.69299e-05       5.41749e+01
 20.200      2.17216e+02      -1.09376e+00      -9.54659e-01       8.55564e-05       5.33368e+01
 20.300      2.17289e+02      -1.31716e+00      -6.74214e-01       8.42060e-05       5.25124e+01
