# Data Source: NASA MERRA (version 1)
# Model Time = 2010-03-01 00:00:00
# Location = [  39.7393, -104.9900 ]
# Fields = [ Z(km), T(K), U(m/s), V(m/s), R(g/cm3), P(mbar) ]
# Ground Height = 1.589
  0.000      2.84546e+02      -3.01349e+00      -2.07529e+00       1.23969e-03       1.01238e+03
  0.100      2.83914e+02      -3.02149e+00      -2.08244e+00       1.22760e-03       1.00028e+03
  0.200      2.83282e+02      -3.02944e+00      -2.08990e+00       1.21563e-03       9.88330e+02
  0.300      2.82646e+02      -3.03954e+00      -2.08464e+00       1.20379e-03       9.76505e+02
  0.400      2.82004e+02      -3.05087e+00      -2.05713e+00       1.19206e-03       9.64798e+02
  0.500      2.81354e+02      -3.04390e+00      -2.01874e+00       1.18046e-03       9.53203e+02
  0.600      2.80700e+02      -2.99894e+00      -1.98692e+00       1.16895e-03       9.41718e+02
  0.700      2.80033e+02      -2.95958e+00      -1.96506e+00       1.15758e-03       9.30345e+02
  0.800      2.79345e+02      -3.00034e+00      -1.94902e+00       1.14639e-03       9.19086e+02
  0.900      2.78645e+02      -3.10968e+00      -1.94079e+00       1.13534e-03       9.07940e+02
  1.000      2.77963e+02      -3.19591e+00      -1.94812e+00       1.12428e-03       8.96901e+02
  1.100      2.77314e+02      -3.20610e+00      -1.97391e+00       1.11318e-03       8.85966e+02
  1.200      2.76679e+02      -3.16187e+00      -2.01208e+00       1.10209e-03       8.75136e+02
  1.300      2.76039e+02      -3.09254e+00      -2.05559e+00       1.09111e-03       8.64412e+02
  1.400      2.75373e+02      -3.02745e+00      -2.09741e+00       1.08032e-03       8.53796e+02
  1.500      2.74662e+02      -2.99359e+00      -2.13273e+00       1.06978e-03       8.43289e+02
  1.600      2.73917e+02      -2.98832e+00      -2.18524e+00       1.05946e-03       8.32889e+02
  1.700      2.73167e+02      -2.98845e+00      -2.29837e+00       1.04924e-03       8.22594e+02
  1.800      2.72442e+02      -2.97035e+00      -2.51591e+00       1.03900e-03       8.12400e+02
  1.900      2.71772e+02      -2.91042e+00      -2.88170e+00       1.02862e-03       8.02305e+02
  2.000      2.71182e+02      -2.78892e+00      -3.43221e+00       1.01801e-03       7.92307e+02
  2.100      2.70674e+02      -2.61753e+00      -4.14429e+00       1.00717e-03       7.82407e+02
  2.200      2.70235e+02      -2.42324e+00      -4.96575e+00       9.96177e-04       7.72611e+02
  2.300      2.69853e+02      -2.23315e+00      -5.84417e+00       9.85079e-04       7.62922e+02
  2.400      2.69514e+02      -2.07436e+00      -6.72718e+00       9.73933e-04       7.53344e+02
  2.500      2.69207e+02      -1.97220e+00      -7.56430e+00       9.62798e-04       7.43880e+02
  2.600      2.68912e+02      -1.93004e+00      -8.32894e+00       9.51736e-04       7.34529e+02
  2.700      2.68610e+02      -1.93639e+00      -9.01073e+00       9.40818e-04       7.25288e+02
  2.800      2.68280e+02      -1.97943e+00      -9.59960e+00       9.30111e-04       7.16151e+02
  2.900      2.67899e+02      -2.04740e+00      -1.00855e+01       9.19680e-04       7.07115e+02
  3.000      2.67448e+02      -2.12849e+00      -1.04583e+01       9.09585e-04       6.98176e+02
  3.100      2.66918e+02      -2.21122e+00      -1.07112e+01       8.99847e-04       6.89332e+02
  3.200      2.66327e+02      -2.28475e+00      -1.08443e+01       8.90396e-04       6.80581e+02
  3.300      2.65696e+02      -2.33831e+00      -1.08586e+01       8.81155e-04       6.71922e+02
  3.400      2.65047e+02      -2.36117e+00      -1.07553e+01       8.72049e-04       6.63354e+02
  3.500      2.64402e+02      -2.34256e+00      -1.05354e+01       8.63006e-04       6.54877e+02
  3.600      2.63782e+02      -2.27201e+00      -1.02003e+01       8.53955e-04       6.46490e+02
  3.700      2.63194e+02      -2.14858e+00      -9.76191e+00       8.44876e-04       6.38191e+02
  3.800      2.62628e+02      -1.98315e+00      -9.24524e+00       8.35803e-04       6.29980e+02
  3.900      2.62073e+02      -1.78727e+00      -8.67608e+00       8.26773e-04       6.21857e+02
  4.000      2.61518e+02      -1.57253e+00      -8.08024e+00       8.17821e-04       6.13820e+02
  4.100      2.60950e+02      -1.35050e+00      -7.48351e+00       8.08982e-04       6.05869e+02
  4.200      2.60360e+02      -1.13275e+00      -6.91164e+00       8.00289e-04       5.98003e+02
  4.300      2.59741e+02      -9.28288e-01      -6.38300e+00       7.91756e-04       5.90221e+02
  4.400      2.59098e+02      -7.41254e-01      -5.90188e+00       7.83367e-04       5.82521e+02
  4.500      2.58436e+02      -5.75242e-01      -5.47097e+00       7.75103e-04       5.74904e+02
  4.600      2.57762e+02      -4.33845e-01      -5.09297e+00       7.66943e-04       5.67366e+02
  4.700      2.57080e+02      -3.20656e-01      -4.77056e+00       7.58870e-04       5.59908e+02
  4.800      2.56396e+02      -2.39266e-01      -4.50645e+00       7.50864e-04       5.52528e+02
  4.900      2.55715e+02      -1.92631e-01      -4.30248e+00       7.42911e-04       5.45224e+02
  5.000      2.55038e+02      -1.75950e-01      -4.15033e+00       7.35009e-04       5.37997e+02
  5.100      2.54362e+02      -1.79268e-01      -4.03488e+00       7.27167e-04       5.30846e+02
  5.200      2.53684e+02      -1.92534e-01      -3.94089e+00       7.19392e-04       5.23771e+02
  5.300      2.53001e+02      -2.05698e-01      -3.85315e+00       7.11695e-04       5.16771e+02
  5.400      2.52309e+02      -2.08709e-01      -3.75641e+00       7.04082e-04       5.09845e+02
  5.500      2.51606e+02      -1.91518e-01      -3.63544e+00       6.96561e-04       5.02994e+02
  5.600      2.50889e+02      -1.44496e-01      -3.47563e+00       6.89141e-04       4.96217e+02
  5.700      2.50157e+02      -6.54535e-02      -3.27323e+00       6.81820e-04       4.89513e+02
  5.800      2.49410e+02       4.14340e-02      -3.03380e+00       6.74597e-04       4.82881e+02
  5.900      2.48649e+02       1.71783e-01      -2.76320e+00       6.67467e-04       4.76320e+02
  6.000      2.47876e+02       3.21210e-01      -2.46728e+00       6.60427e-04       4.69830e+02
  6.100      2.47090e+02       4.85335e-01      -2.15192e+00       6.53472e-04       4.63408e+02
  6.200      2.46292e+02       6.59773e-01      -1.82297e+00       6.46599e-04       4.57054e+02
  6.300      2.45484e+02       8.40144e-01      -1.48628e+00       6.39805e-04       4.50767e+02
  6.400      2.44666e+02       1.02213e+00      -1.14666e+00       6.33086e-04       4.44547e+02
  6.500      2.43838e+02       1.20179e+00      -8.02720e-01       6.26439e-04       4.38392e+02
  6.600      2.43003e+02       1.37534e+00      -4.50867e-01       6.19859e-04       4.32301e+02
  6.700      2.42161e+02       1.53897e+00      -8.74952e-02       6.13344e-04       4.26275e+02
  6.800      2.41312e+02       1.68889e+00       2.90999e-01       6.06889e-04       4.20311e+02
  6.900      2.40459e+02       1.82129e+00       6.88216e-01       6.00492e-04       4.14410e+02
  7.000      2.39602e+02       1.93239e+00       1.10776e+00       5.94148e-04       4.08571e+02
  7.100      2.38742e+02       2.01837e+00       1.55323e+00       5.87854e-04       4.02792e+02
  7.200      2.37881e+02       2.07557e+00       2.02802e+00       5.81609e-04       3.97074e+02
  7.300      2.37017e+02       2.10291e+00       2.53079e+00       5.75410e-04       3.91416e+02
  7.400      2.36150e+02       2.10184e+00       3.05563e+00       5.69263e-04       3.85818e+02
  7.500      2.35278e+02       2.07389e+00       3.59648e+00       5.63171e-04       3.80280e+02
  7.600      2.34400e+02       2.02061e+00       4.14723e+00       5.57136e-04       3.74801e+02
  7.700      2.33515e+02       1.94355e+00       4.70180e+00       5.51163e-04       3.69382e+02
  7.800      2.32620e+02       1.84426e+00       5.25411e+00       5.45254e-04       3.64022e+02
  7.900      2.31715e+02       1.72427e+00       5.79808e+00       5.39412e-04       3.58721e+02
  8.000      2.30798e+02       1.58514e+00       6.32761e+00       5.33640e-04       3.53479e+02
  8.100      2.29869e+02       1.42844e+00       6.83665e+00       5.27941e-04       3.48295e+02
  8.200      2.28927e+02       1.25738e+00       7.32050e+00       5.22312e-04       3.43169e+02
  8.300      2.27978e+02       1.07776e+00       7.77664e+00       5.16738e-04       3.38100e+02
  8.400      2.27028e+02       8.95599e-01       8.20272e+00       5.11207e-04       3.33087e+02
  8.500      2.26081e+02       7.16920e-01       8.59640e+00       5.05706e-04       3.28128e+02
  8.600      2.25143e+02       5.47739e-01       8.95534e+00       5.00220e-04       3.23223e+02
  8.700      2.24220e+02       3.94079e-01       9.27718e+00       4.94739e-04       3.18370e+02
  8.800      2.23316e+02       2.61955e-01       9.55958e+00       4.89249e-04       3.13568e+02
  8.900      2.22437e+02       1.57389e-01       9.80021e+00       4.83740e-04       3.08817e+02
  9.000      2.21589e+02       8.63982e-02       9.99671e+00       4.78198e-04       3.04115e+02
  9.100      2.20776e+02       5.50009e-02       1.01467e+01       4.72615e-04       2.99462e+02
  9.200      2.20005e+02       6.66879e-02       1.02487e+01       4.66981e-04       2.94858e+02
  9.300      2.19278e+02       1.17793e-01       1.03032e+01       4.61292e-04       2.90304e+02
  9.400      2.18601e+02       2.03390e-01       1.03110e+01       4.55546e-04       2.85803e+02
  9.500      2.17979e+02       3.18554e-01       1.02731e+01       4.49742e-04       2.81358e+02
  9.600      2.17415e+02       4.58359e-01       1.01905e+01       4.43877e-04       2.76970e+02
  9.700      2.16914e+02       6.17877e-01       1.00640e+01       4.37949e-04       2.72642e+02
  9.800      2.16480e+02       7.92186e-01       9.89450e+00       4.31959e-04       2.68375e+02
  9.900      2.16118e+02       9.76356e-01       9.68299e+00       4.25904e-04       2.64170e+02
 10.000      2.15832e+02       1.16547e+00       9.43033e+00       4.19784e-04       2.60030e+02
 10.100      2.15626e+02       1.35459e+00       9.13746e+00       4.13599e-04       2.55955e+02
 10.200      2.15506e+02       1.53879e+00       8.80528e+00       4.07351e-04       2.51947e+02
 10.300      2.15474e+02       1.71328e+00       8.43476e+00       4.01039e-04       2.48007e+02
 10.400      2.15529e+02       1.87601e+00       8.02810e+00       3.94676e-04       2.44134e+02
 10.500      2.15660e+02       2.02765e+00       7.58869e+00       3.88286e-04       2.40327e+02
 10.600      2.15858e+02       2.16895e+00       7.11996e+00       3.81889e-04       2.36585e+02
 10.700      2.16113e+02       2.30068e+00       6.62537e+00       3.75507e-04       2.32906e+02
 10.800      2.16415e+02       2.42363e+00       6.10836e+00       3.69159e-04       2.29289e+02
 10.900      2.16754e+02       2.53856e+00       5.57237e+00       3.62864e-04       2.25732e+02
 11.000      2.17121e+02       2.64624e+00       5.02085e+00       3.56638e-04       2.22235e+02
 11.100      2.17506e+02       2.74744e+00       4.45723e+00       3.50497e-04       2.18795e+02
 11.200      2.17898e+02       2.84293e+00       3.88497e+00       3.44457e-04       2.15412e+02
 11.300      2.18288e+02       2.93348e+00       3.30750e+00       3.38530e-04       2.12085e+02
 11.400      2.18667e+02       3.01987e+00       2.72827e+00       3.32728e-04       2.08811e+02
 11.500      2.19024e+02       3.10285e+00       2.15072e+00       3.27064e-04       2.05591e+02
 11.600      2.19349e+02       3.18321e+00       1.57830e+00       3.21546e-04       2.02423e+02
 11.700      2.19633e+02       3.26171e+00       1.01445e+00       3.16186e-04       1.99306e+02
 11.800      2.19869e+02       3.33899e+00       4.61958e-01       3.10985e-04       1.96239e+02
 11.900      2.20061e+02       3.41541e+00      -7.76913e-02       3.05935e-04       1.93221e+02
 12.000      2.20212e+02       3.49128e+00      -6.03208e-01       3.01027e-04       1.90251e+02
 12.100      2.20324e+02       3.56693e+00      -1.11328e+00       2.96251e-04       1.87328e+02
 12.200      2.20401e+02       3.64269e+00      -1.60661e+00       2.91600e-04       1.84452e+02
 12.300      2.20447e+02       3.71888e+00      -2.08189e+00       2.87064e-04       1.81621e+02
 12.400      2.20465e+02       3.79581e+00      -2.53783e+00       2.82638e-04       1.78834e+02
 12.500      2.20458e+02       3.87381e+00      -2.97311e+00       2.78312e-04       1.76092e+02
 12.600      2.20430e+02       3.95321e+00      -3.38644e+00       2.74081e-04       1.73392e+02
 12.700      2.20383e+02       4.03432e+00      -3.77651e+00       2.69937e-04       1.70735e+02
 12.800      2.20322e+02       4.11748e+00      -4.14202e+00       2.65875e-04       1.68119e+02
 12.900      2.20250e+02       4.20299e+00      -4.48167e+00       2.61889e-04       1.65544e+02
 13.000      2.20169e+02       4.29119e+00      -4.79416e+00       2.57973e-04       1.63009e+02
 13.100      2.20084e+02       4.38240e+00      -5.07817e+00       2.54121e-04       1.60514e+02
 13.200      2.19998e+02       4.47693e+00      -5.33242e+00       2.50329e-04       1.58057e+02
 13.300      2.19914e+02       4.57512e+00      -5.55560e+00       2.46592e-04       1.55637e+02
 13.400      2.19835e+02       4.67729e+00      -5.74640e+00       2.42905e-04       1.53256e+02
 13.500      2.19766e+02       4.78375e+00      -5.90352e+00       2.39264e-04       1.50910e+02
 13.600      2.19708e+02       4.89479e+00      -6.02579e+00       2.35665e-04       1.48601e+02
 13.700      2.19662e+02       5.01011e+00      -6.11389e+00       2.32106e-04       1.46327e+02
 13.800      2.19629e+02       5.12899e+00      -6.16988e+00       2.28589e-04       1.44088e+02
 13.900      2.19606e+02       5.25068e+00      -6.19586e+00       2.25114e-04       1.41883e+02
 14.000      2.19593e+02       5.37445e+00      -6.19396e+00       2.21682e-04       1.39711e+02
 14.100      2.19588e+02       5.49954e+00      -6.16627e+00       2.18294e-04       1.37573e+02
 14.200      2.19591e+02       5.62522e+00      -6.11490e+00       2.14950e-04       1.35467e+02
 14.300      2.19600e+02       5.75075e+00      -6.04196e+00       2.11651e-04       1.33393e+02
 14.400      2.19613e+02       5.87538e+00      -5.94955e+00       2.08397e-04       1.31350e+02
 14.500      2.19632e+02       5.99837e+00      -5.83977e+00       2.05188e-04       1.29339e+02
 14.600      2.19653e+02       6.11899e+00      -5.71474e+00       2.02026e-04       1.27358e+02
 14.700      2.19676e+02       6.23648e+00      -5.57657e+00       1.98910e-04       1.25407e+02
 14.800      2.19699e+02       6.35012e+00      -5.42734e+00       1.95841e-04       1.23485e+02
 14.900      2.19723e+02       6.45915e+00      -5.26919e+00       1.92819e-04       1.21592e+02
 15.000      2.19745e+02       6.56283e+00      -5.10420e+00       1.89843e-04       1.19728e+02
 15.100      2.19764e+02       6.66043e+00      -4.93448e+00       1.86915e-04       1.17892e+02
 15.200      2.19780e+02       6.75120e+00      -4.76215e+00       1.84034e-04       1.16083e+02
 15.300      2.19792e+02       6.83440e+00      -4.58931e+00       1.81201e-04       1.14302e+02
 15.400      2.19798e+02       6.90929e+00      -4.41806e+00       1.78414e-04       1.12547e+02
 15.500      2.19796e+02       6.97512e+00      -4.25051e+00       1.75675e-04       1.10819e+02
 15.600      2.19787e+02       7.03116e+00      -4.08876e+00       1.72983e-04       1.09116e+02
 15.700      2.19769e+02       7.07666e+00      -3.93493e+00       1.70339e-04       1.07439e+02
 15.800      2.19741e+02       7.11089e+00      -3.79112e+00       1.67741e-04       1.05787e+02
 15.900      2.19702e+02       7.13310e+00      -3.65944e+00       1.65190e-04       1.04160e+02
 16.000      2.19650e+02       7.14254e+00      -3.54198e+00       1.62686e-04       1.02556e+02
 16.100      2.19585e+02       7.13848e+00      -3.44086e+00       1.60228e-04       1.00977e+02
 16.200      2.19505e+02       7.12019e+00      -3.35816e+00       1.57817e-04       9.94215e+01
 16.300      2.19411e+02       7.08753e+00      -3.29465e+00       1.55451e-04       9.78889e+01
 16.400      2.19304e+02       7.04116e+00      -3.24927e+00       1.53128e-04       9.63792e+01
 16.500      2.19185e+02       6.98183e+00      -3.22084e+00       1.50847e-04       9.48919e+01
 16.600      2.19056e+02       6.91026e+00      -3.20819e+00       1.48605e-04       9.34269e+01
 16.700      2.18918e+02       6.82718e+00      -3.21013e+00       1.46402e-04       9.19837e+01
 16.800      2.18772e+02       6.73334e+00      -3.22547e+00       1.44236e-04       9.05622e+01
 16.900      2.18621e+02       6.62946e+00      -3.25303e+00       1.42104e-04       8.91619e+01
 17.000      2.18464e+02       6.51627e+00      -3.29163e+00       1.40006e-04       8.77826e+01
 17.100      2.18305e+02       6.39452e+00      -3.34009e+00       1.37939e-04       8.64240e+01
 17.200      2.18144e+02       6.26493e+00      -3.39722e+00       1.35904e-04       8.50857e+01
 17.300      2.17983e+02       6.12823e+00      -3.46184e+00       1.33897e-04       8.37676e+01
 17.400      2.17822e+02       5.98516e+00      -3.53276e+00       1.31919e-04       8.24693e+01
 17.500      2.17665e+02       5.83645e+00      -3.60881e+00       1.29968e-04       8.11905e+01
 17.600      2.17511e+02       5.68284e+00      -3.68879e+00       1.28042e-04       7.99310e+01
 17.700      2.17363e+02       5.52506e+00      -3.77153e+00       1.26141e-04       7.86905e+01
 17.800      2.17221e+02       5.36384e+00      -3.85585e+00       1.24263e-04       7.74688e+01
 17.900      2.17088e+02       5.19991e+00      -3.94055e+00       1.22408e-04       7.62654e+01
 18.000      2.16965e+02       5.03400e+00      -4.02446e+00       1.20574e-04       7.50803e+01
 18.100      2.16853e+02       4.86686e+00      -4.10640e+00       1.18761e-04       7.39131e+01
 18.200      2.16754e+02       4.69921e+00      -4.18517e+00       1.16968e-04       7.27635e+01
 18.300      2.16668e+02       4.53179e+00      -4.25960e+00       1.15193e-04       7.16314e+01
 18.400      2.16598e+02       4.36532e+00      -4.32851e+00       1.13437e-04       7.05165e+01
 18.500      2.16545e+02       4.20053e+00      -4.39073e+00       1.11698e-04       6.94184e+01
 18.600      2.16509e+02       4.03770e+00      -4.44570e+00       1.09976e-04       6.83372e+01
 18.700      2.16489e+02       3.87677e+00      -4.49339e+00       1.08273e-04       6.72724e+01
 18.800      2.16483e+02       3.71762e+00      -4.53376e+00       1.06588e-04       6.62241e+01
 18.900      2.16492e+02       3.56017e+00      -4.56682e+00       1.04923e-04       6.51921e+01
 19.000      2.16514e+02       3.40431e+00      -4.59253e+00       1.03278e-04       6.41762e+01
 19.100      2.16547e+02       3.24995e+00      -4.61089e+00       1.01653e-04       6.31762e+01
 19.200      2.16592e+02       3.09700e+00      -4.62188e+00       1.00049e-04       6.21920e+01
 19.300      2.16646e+02       2.94536e+00      -4.62548e+00       9.84658e-05       6.12235e+01
 19.400      2.16709e+02       2.79492e+00      -4.62167e+00       9.69047e-05       6.02703e+01
 19.500      2.16780e+02       2.64559e+00      -4.61044e+00       9.53656e-05       5.93325e+01
 19.600      2.16857e+02       2.49728e+00      -4.59177e+00       9.38489e-05       5.84098e+01
 19.700      2.16941e+02       2.34989e+00      -4.56565e+00       9.23550e-05       5.75020e+01
 19.800      2.17028e+02       2.20332e+00      -4.53205e+00       9.08839e-05       5.66090e+01
 19.900      2.17120e+02       2.05747e+00      -4.49097e+00       8.94359e-05       5.57306e+01
 20.000      2.17214e+02       1.91225e+00      -4.44238e+00       8.80113e-05       5.48666e+01
 20.100      2.17310e+02       1.76756e+00      -4.38627e+00       8.66102e-05       5.40169e+01
 20.200      2.17406e+02       1.62331e+00      -4.32262e+00       8.52326e-05       5.31813e+01
 20.300      2.17502e+02       1.47940e+00      -4.25141e+00       8.38788e-05       5.23597e+01
