# Data Source: NASA GEOS5 Near-Real-Time
# Model Time = 2010-06-01 00:00:00
# Location = [  39.7393, -104.9900 ]
# Fields = [ Z(km), T(K), U(m/s), V(m/s), R(g/cm3), P(mbar) ]
# Ground Height = 1.589
  0.000      3.08787e+02      -8.76247e-01       1.66478e+00       1.13667e-03       1.00734e+03
  0.100      3.08117e+02      -9.05940e-01       1.64427e+00       1.12585e-03       9.95584e+02
  0.200      3.07447e+02      -9.28561e-01       1.63219e+00       1.11514e-03       9.83969e+02
  0.300      3.06780e+02      -9.25415e-01       1.65073e+00       1.10453e-03       9.72493e+02
  0.400      3.06117e+02      -8.88010e-01       1.69549e+00       1.09402e-03       9.61158e+02
  0.500      3.05464e+02      -8.29406e-01       1.70591e+00       1.08359e-03       9.49965e+02
  0.600      3.04823e+02      -7.66823e-01       1.64149e+00       1.07324e-03       9.38914e+02
  0.700      3.04187e+02      -7.23102e-01       1.56947e+00       1.06299e-03       9.28006e+02
  0.800      3.03551e+02      -7.18334e-01       1.57288e+00       1.05286e-03       9.17238e+02
  0.900      3.02912e+02      -7.32997e-01       1.63057e+00       1.04285e-03       9.06605e+02
  1.000      3.02274e+02      -7.26156e-01       1.66437e+00       1.03293e-03       8.96096e+02
  1.100      3.01643e+02      -6.84017e-01       1.63716e+00       1.02310e-03       8.85711e+02
  1.200      3.01022e+02      -6.30999e-01       1.56998e+00       1.01334e-03       8.75457e+02
  1.300      3.00414e+02      -5.90911e-01       1.49005e+00       1.00366e-03       8.65342e+02
  1.400      2.99800e+02      -5.71777e-01       1.43334e+00       9.94112e-04       8.55361e+02
  1.500      2.99159e+02      -5.77031e-01       1.43723e+00       9.84765e-04       8.45505e+02
  1.600      2.98472e+02      -6.07802e-01       1.50921e+00       9.75665e-04       8.35768e+02
  1.700      2.97727e+02      -6.62646e-01       1.62340e+00       9.66841e-04       8.26144e+02
  1.800      2.96921e+02      -7.39069e-01       1.75477e+00       9.58302e-04       8.16629e+02
  1.900      2.96074e+02      -8.29320e-01       1.89335e+00       9.49961e-04       8.07213e+02
  2.000      2.95222e+02      -9.23769e-01       2.03455e+00       9.41701e-04       7.97890e+02
  2.100      2.94383e+02      -1.01176e+00       2.17567e+00       9.33453e-04       7.88655e+02
  2.200      2.93550e+02      -1.08053e+00       2.31791e+00       9.25244e-04       7.79507e+02
  2.300      2.92712e+02      -1.11738e+00       2.46283e+00       9.17111e-04       7.70449e+02
  2.400      2.91863e+02      -1.11691e+00       2.60927e+00       9.09071e-04       7.61480e+02
  2.500      2.91002e+02      -1.08100e+00       2.75337e+00       9.01123e-04       7.52596e+02
  2.600      2.90129e+02      -1.01110e+00       2.89202e+00       8.93265e-04       7.43794e+02
  2.700      2.89241e+02      -9.01661e-01       3.03074e+00       8.85504e-04       7.35075e+02
  2.800      2.88335e+02      -7.43014e-01       3.18004e+00       8.77848e-04       7.26438e+02
  2.900      2.87409e+02      -5.27437e-01       3.34706e+00       8.70307e-04       7.17885e+02
  3.000      2.86464e+02      -2.60444e-01       3.51606e+00       8.62872e-04       7.09411e+02
  3.100      2.85501e+02       4.70414e-02       3.66196e+00       8.55529e-04       7.01010e+02
  3.200      2.84524e+02       3.85594e-01       3.76551e+00       8.48263e-04       6.92678e+02
  3.300      2.83544e+02       7.54510e-01       3.84139e+00       8.41041e-04       6.84415e+02
  3.400      2.82573e+02       1.15621e+00       3.91638e+00       8.33828e-04       6.76223e+02
  3.500      2.81624e+02       1.59347e+00       4.01273e+00       8.26594e-04       6.68104e+02
  3.600      2.80696e+02       2.07141e+00       4.12371e+00       8.19341e-04       6.60059e+02
  3.700      2.79783e+02       2.59603e+00       4.23136e+00       8.12084e-04       6.52085e+02
  3.800      2.78880e+02       3.17258e+00       4.31951e+00       8.04837e-04       6.44181e+02
  3.900      2.77986e+02       3.79920e+00       4.38862e+00       7.97610e-04       6.36348e+02
  4.000      2.77096e+02       4.47022e+00       4.44801e+00       7.90409e-04       6.28585e+02
  4.100      2.76211e+02       5.17962e+00       4.50682e+00       7.83241e-04       6.20894e+02
  4.200      2.75327e+02       5.91420e+00       4.56883e+00       7.76110e-04       6.13274e+02
  4.300      2.74445e+02       6.65422e+00       4.63300e+00       7.69017e-04       6.05723e+02
  4.400      2.73564e+02       7.37977e+00       4.69810e+00       7.61965e-04       5.98240e+02
  4.500      2.72683e+02       8.07698e+00       4.76791e+00       7.54952e-04       5.90825e+02
  4.600      2.71805e+02       8.74423e+00       4.85623e+00       7.47970e-04       5.83477e+02
  4.700      2.70935e+02       9.38136e+00       4.97808e+00       7.41012e-04       5.76198e+02
  4.800      2.70073e+02       9.98805e+00       5.14690e+00       7.34074e-04       5.68987e+02
  4.900      2.69213e+02       1.05628e+01       5.36572e+00       7.27174e-04       5.61844e+02
  5.000      2.68344e+02       1.11035e+01       5.63332e+00       7.20341e-04       5.54768e+02
  5.100      2.67456e+02       1.16082e+01       5.94841e+00       7.13599e-04       5.47757e+02
  5.200      2.66544e+02       1.20770e+01       6.30501e+00       7.06960e-04       5.40811e+02
  5.300      2.65616e+02       1.25136e+01       6.68960e+00       7.00404e-04       5.33930e+02
  5.400      2.64678e+02       1.29217e+01       7.08800e+00       6.93914e-04       5.27115e+02
  5.500      2.63738e+02       1.33049e+01       7.48503e+00       6.87471e-04       5.20366e+02
  5.600      2.62801e+02       1.36634e+01       7.85489e+00       6.81060e-04       5.13681e+02
  5.700      2.61871e+02       1.39952e+01       8.16530e+00       6.74667e-04       5.07060e+02
  5.800      2.60954e+02       1.42983e+01       8.38388e+00       6.68280e-04       5.00500e+02
  5.900      2.60053e+02       1.45745e+01       8.48477e+00       6.61886e-04       4.93999e+02
  6.000      2.59174e+02       1.48435e+01       8.47503e+00       6.55472e-04       4.87560e+02
  6.100      2.58326e+02       1.51305e+01       8.37202e+00       6.49024e-04       4.81183e+02
  6.200      2.57514e+02       1.54610e+01       8.19313e+00       6.42529e-04       4.74871e+02
  6.300      2.56745e+02       1.58561e+01       7.95431e+00       6.35977e-04       4.68625e+02
  6.400      2.56015e+02       1.63207e+01       7.66618e+00       6.29378e-04       4.62444e+02
  6.500      2.55322e+02       1.68562e+01       7.33810e+00       6.22739e-04       4.56327e+02
  6.600      2.54662e+02       1.74635e+01       6.97942e+00       6.16073e-04       4.50275e+02
  6.700      2.54029e+02       1.81380e+01       6.60127e+00       6.09395e-04       4.44287e+02
  6.800      2.53409e+02       1.88463e+01       6.22286e+00       6.02737e-04       4.38362e+02
  6.900      2.52788e+02       1.95474e+01       5.86572e+00       5.96139e-04       4.32501e+02
  7.000      2.52150e+02       2.02000e+01       5.55139e+00       5.89639e-04       4.26704e+02
  7.100      2.51480e+02       2.07662e+01       5.29903e+00       5.83270e-04       4.20973e+02
  7.200      2.50778e+02       2.12424e+01       5.10363e+00       5.77027e-04       4.15305e+02
  7.300      2.50053e+02       2.16446e+01       4.94608e+00       5.70888e-04       4.09698e+02
  7.400      2.49313e+02       2.19893e+01       4.80708e+00       5.64830e-04       4.04152e+02
  7.500      2.48568e+02       2.22927e+01       4.66738e+00       5.58831e-04       3.98664e+02
  7.600      2.47823e+02       2.25644e+01       4.51231e+00       5.52875e-04       3.93233e+02
  7.700      2.47079e+02       2.28002e+01       4.33628e+00       5.46960e-04       3.87859e+02
  7.800      2.46339e+02       2.29944e+01       4.13475e+00       5.41084e-04       3.82542e+02
  7.900      2.45602e+02       2.31412e+01       3.90319e+00       5.35245e-04       3.77282e+02
  8.000      2.44869e+02       2.32358e+01       3.63774e+00       5.29443e-04       3.72078e+02
  8.100      2.44139e+02       2.32874e+01       3.34653e+00       5.23681e-04       3.66931e+02
  8.200      2.43407e+02       2.33178e+01       3.04785e+00       5.17967e-04       3.61841e+02
  8.300      2.42671e+02       2.33487e+01       2.76029e+00       5.12309e-04       3.56805e+02
  8.400      2.41926e+02       2.34021e+01       2.50249e+00       5.06714e-04       3.51826e+02
  8.500      2.41170e+02       2.34982e+01       2.29186e+00       5.01189e-04       3.46902e+02
  8.600      2.40401e+02       2.36339e+01       2.13023e+00       4.95732e-04       3.42032e+02
  8.700      2.39624e+02       2.37897e+01       2.00837e+00       4.90337e-04       3.37215e+02
  8.800      2.38842e+02       2.39458e+01       1.91678e+00       4.84994e-04       3.32452e+02
  8.900      2.38056e+02       2.40824e+01       1.84599e+00       4.79699e-04       3.27740e+02
  9.000      2.37270e+02       2.41800e+01       1.78662e+00       4.74444e-04       3.23080e+02
  9.100      2.36485e+02       2.42328e+01       1.73334e+00       4.69228e-04       3.18470e+02
  9.200      2.35697e+02       2.42520e+01       1.68590e+00       4.64055e-04       3.13911e+02
  9.300      2.34905e+02       2.42499e+01       1.64438e+00       4.58931e-04       3.09401e+02
  9.400      2.34106e+02       2.42390e+01       1.60885e+00       4.53860e-04       3.04941e+02
  9.500      2.33296e+02       2.42314e+01       1.57938e+00       4.48848e-04       3.00531e+02
  9.600      2.32474e+02       2.42383e+01       1.55572e+00       4.43897e-04       2.96169e+02
  9.700      2.31645e+02       2.42617e+01       1.53583e+00       4.38999e-04       2.91855e+02
  9.800      2.30813e+02       2.43011e+01       1.51703e+00       4.34143e-04       2.87591e+02
  9.900      2.29984e+02       2.43557e+01       1.49663e+00       4.29319e-04       2.83374e+02
 10.000      2.29165e+02       2.44247e+01       1.47193e+00       4.24514e-04       2.79204e+02
 10.100      2.28360e+02       2.45075e+01       1.44026e+00       4.19721e-04       2.75082e+02
 10.200      2.27574e+02       2.46033e+01       1.40048e+00       4.14931e-04       2.71007e+02
 10.300      2.26801e+02       2.47117e+01       1.35811e+00       4.10156e-04       2.66979e+02
 10.400      2.26035e+02       2.48319e+01       1.32042e+00       4.05409e-04       2.62996e+02
 10.500      2.25266e+02       2.49635e+01       1.29470e+00       4.00703e-04       2.59060e+02
 10.600      2.24488e+02       2.51059e+01       1.28821e+00       3.96052e-04       2.55168e+02
 10.700      2.23693e+02       2.52586e+01       1.30823e+00       3.91468e-04       2.51322e+02
 10.800      2.22874e+02       2.54209e+01       1.36107e+00       3.86962e-04       2.47520e+02
 10.900      2.22035e+02       2.55916e+01       1.44105e+00       3.82528e-04       2.43762e+02
 11.000      2.21185e+02       2.57688e+01       1.53456e+00       3.78147e-04       2.40048e+02
 11.100      2.20334e+02       2.59506e+01       1.62780e+00       3.73802e-04       2.36377e+02
 11.200      2.19492e+02       2.61353e+01       1.70700e+00       3.69477e-04       2.32749e+02
 11.300      2.18669e+02       2.63210e+01       1.75837e+00       3.65154e-04       2.29163e+02
 11.400      2.17874e+02       2.65058e+01       1.76813e+00       3.60819e-04       2.25619e+02
 11.500      2.17117e+02       2.66879e+01       1.72558e+00       3.56458e-04       2.22118e+02
 11.600      2.16397e+02       2.68640e+01       1.64113e+00       3.52072e-04       2.18658e+02
 11.700      2.15713e+02       2.70307e+01       1.53402e+00       3.47668e-04       2.15240e+02
 11.800      2.15062e+02       2.71845e+01       1.42353e+00       3.43253e-04       2.11865e+02
 11.900      2.14440e+02       2.73218e+01       1.32893e+00       3.38834e-04       2.08533e+02
 12.000      2.13846e+02       2.74391e+01       1.26951e+00       3.34417e-04       2.05245e+02
 12.100      2.13276e+02       2.75329e+01       1.26454e+00       3.30009e-04       2.01999e+02
 12.200      2.12729e+02       2.75996e+01       1.33300e+00       3.25614e-04       1.98798e+02
 12.300      2.12207e+02       2.76347e+01       1.48096e+00       3.21229e-04       1.95640e+02
 12.400      2.11725e+02       2.76330e+01       1.69661e+00       3.16837e-04       1.92526e+02
 12.500      2.11295e+02       2.75886e+01       1.96688e+00       3.12420e-04       1.89457e+02
 12.600      2.10931e+02       2.74961e+01       2.27865e+00       3.07962e-04       1.86432e+02
 12.700      2.10648e+02       2.73499e+01       2.61885e+00       3.03447e-04       1.83452e+02
 12.800      2.10458e+02       2.71443e+01       2.97436e+00       2.98862e-04       1.80517e+02
 12.900      2.10376e+02       2.68738e+01       3.33211e+00       2.94192e-04       1.77627e+02
 13.000      2.10414e+02       2.65328e+01       3.67899e+00       2.89426e-04       1.74781e+02
 13.100      2.10580e+02       2.61200e+01       4.00397e+00       2.84565e-04       1.71981e+02
 13.200      2.10856e+02       2.56478e+01       4.30253e+00       2.79641e-04       1.69226e+02
 13.300      2.11219e+02       2.51312e+01       4.57145e+00       2.74691e-04       1.66518e+02
 13.400      2.11649e+02       2.45853e+01       4.80751e+00       2.69750e-04       1.63855e+02
 13.500      2.12124e+02       2.40251e+01       5.00749e+00       2.64850e-04       1.61239e+02
 13.600      2.12620e+02       2.34658e+01       5.16816e+00       2.60021e-04       1.58670e+02
 13.700      2.13118e+02       2.29223e+01       5.28630e+00       2.55292e-04       1.56148e+02
 13.800      2.13593e+02       2.24098e+01       5.35869e+00       2.50686e-04       1.53674e+02
 13.900      2.14026e+02       2.19433e+01       5.38210e+00       2.46228e-04       1.51246e+02
 14.000      2.14394e+02       2.15374e+01       5.35356e+00       2.41937e-04       1.48866e+02
 14.100      2.14688e+02       2.11956e+01       5.27605e+00       2.37817e-04       1.46532e+02
 14.200      2.14916e+02       2.09095e+01       5.15893e+00       2.33852e-04       1.44242e+02
 14.300      2.15082e+02       2.06703e+01       5.01183e+00       2.30027e-04       1.41992e+02
 14.400      2.15192e+02       2.04691e+01       4.84440e+00       2.26327e-04       1.39780e+02
 14.500      2.15254e+02       2.02970e+01       4.66627e+00       2.22741e-04       1.37605e+02
 14.600      2.15273e+02       2.01450e+01       4.48708e+00       2.19255e-04       1.35463e+02
 14.700      2.15256e+02       2.00043e+01       4.31648e+00       2.15857e-04       1.33353e+02
 14.800      2.15208e+02       1.98659e+01       4.16411e+00       2.12538e-04       1.31273e+02
 14.900      2.15136e+02       1.97211e+01       4.03961e+00       2.09285e-04       1.29221e+02
 15.000      2.15045e+02       1.95608e+01       3.95262e+00       2.06090e-04       1.27195e+02
 15.100      2.14943e+02       1.93762e+01       3.91278e+00       2.02943e-04       1.25193e+02
 15.200      2.14835e+02       1.91598e+01       3.92771e+00       1.99837e-04       1.23214e+02
 15.300      2.14722e+02       1.89120e+01       3.99422e+00       1.96770e-04       1.21260e+02
 15.400      2.14607e+02       1.86357e+01       4.10549e+00       1.93742e-04       1.19330e+02
 15.500      2.14490e+02       1.83338e+01       4.25472e+00       1.90756e-04       1.17427e+02
 15.600      2.14372e+02       1.80092e+01       4.43508e+00       1.87812e-04       1.15551e+02
 15.700      2.14255e+02       1.76650e+01       4.63977e+00       1.84910e-04       1.13703e+02
 15.800      2.14140e+02       1.73040e+01       4.86198e+00       1.82051e-04       1.11885e+02
 15.900      2.14028e+02       1.69292e+01       5.09489e+00       1.79235e-04       1.10097e+02
 16.000      2.13920e+02       1.65434e+01       5.33169e+00       1.76463e-04       1.08340e+02
 16.100      2.13817e+02       1.61497e+01       5.56557e+00       1.73736e-04       1.06614e+02
 16.200      2.13721e+02       1.57509e+01       5.78972e+00       1.71053e-04       1.04920e+02
 16.300      2.13633e+02       1.53500e+01       5.99732e+00       1.68415e-04       1.03260e+02
 16.400      2.13554e+02       1.49500e+01       6.18157e+00       1.65822e-04       1.01632e+02
 16.500      2.13484e+02       1.45537e+01       6.33564e+00       1.63274e-04       1.00038e+02
 16.600      2.13426e+02       1.41636e+01       6.45408e+00       1.60771e-04       9.84778e+01
 16.700      2.13379e+02       1.37799e+01       6.53724e+00       1.58312e-04       9.69500e+01
 16.800      2.13342e+02       1.34024e+01       6.58703e+00       1.55895e-04       9.54533e+01
 16.900      2.13315e+02       1.30307e+01       6.60535e+00       1.53518e-04       9.39860e+01
 17.000      2.13298e+02       1.26645e+01       6.59411e+00       1.51180e-04       9.25469e+01
 17.100      2.13290e+02       1.23034e+01       6.55523e+00       1.48878e-04       9.11345e+01
 17.200      2.13291e+02       1.19472e+01       6.49062e+00       1.46612e-04       8.97475e+01
 17.300      2.13300e+02       1.15956e+01       6.40218e+00       1.44380e-04       8.83849e+01
 17.400      2.13317e+02       1.12482e+01       6.29183e+00       1.42180e-04       8.70453e+01
 17.500      2.13341e+02       1.09047e+01       6.16146e+00       1.40012e-04       8.57277e+01
 17.600      2.13373e+02       1.05648e+01       6.01300e+00       1.37874e-04       8.44310e+01
 17.700      2.13411e+02       1.02282e+01       5.84836e+00       1.35765e-04       8.31543e+01
 17.800      2.13455e+02       9.89448e+00       5.66943e+00       1.33683e-04       8.18965e+01
 17.900      2.13505e+02       9.56344e+00       5.47814e+00       1.31628e-04       8.06566e+01
 18.000      2.13561e+02       9.23472e+00       5.27639e+00       1.29599e-04       7.94338e+01
 18.100      2.13621e+02       8.90799e+00       5.06609e+00       1.27595e-04       7.82274e+01
 18.200      2.13686e+02       8.58295e+00       4.84915e+00       1.25614e-04       7.70364e+01
 18.300      2.13755e+02       8.25929e+00       4.62748e+00       1.23656e-04       7.58601e+01
 18.400      2.13828e+02       7.93667e+00       4.40299e+00       1.21720e-04       7.46978e+01
 18.500      2.13904e+02       7.61478e+00       4.17759e+00       1.19805e-04       7.35489e+01
 18.600      2.13983e+02       7.29330e+00       3.95319e+00       1.17911e-04       7.24126e+01
 18.700      2.14064e+02       6.97192e+00       3.73169e+00       1.16036e-04       7.12883e+01
 18.800      2.14147e+02       6.65033e+00       3.51502e+00       1.14180e-04       7.01755e+01
 18.900      2.14232e+02       6.32829e+00       3.30489e+00       1.12343e-04       6.90737e+01
 19.000      2.14318e+02       6.00625e+00       3.10184e+00       1.10525e-04       6.79833e+01
 19.100      2.14406e+02       5.68493e+00       2.90595e+00       1.08727e-04       6.69046e+01
 19.200      2.14495e+02       5.36503e+00       2.71727e+00       1.06950e-04       6.58384e+01
 19.300      2.14585e+02       5.04725e+00       2.53588e+00       1.05195e-04       6.47850e+01
 19.400      2.14677e+02       4.73230e+00       2.36183e+00       1.03462e-04       6.37449e+01
 19.500      2.14769e+02       4.42088e+00       2.19519e+00       1.01752e-04       6.27186e+01
 19.600      2.14864e+02       4.11371e+00       2.03604e+00       1.00065e-04       6.17062e+01
 19.700      2.14959e+02       3.81148e+00       1.88443e+00       9.84034e-05       6.07082e+01
 19.800      2.15055e+02       3.51491e+00       1.74043e+00       9.67663e-05       5.97250e+01
 19.900      2.15153e+02       3.22470e+00       1.60410e+00       9.51544e-05       5.87568e+01
 20.000      2.15252e+02       2.94155e+00       1.47552e+00       9.35681e-05       5.78038e+01
 20.100      2.15351e+02       2.66618e+00       1.35474e+00       9.20079e-05       5.68662e+01
 20.200      2.15452e+02       2.39929e+00       1.24183e+00       9.04739e-05       5.59444e+01
 20.300      2.15554e+02       2.14159e+00       1.13687e+00       8.89666e-05       5.50383e+01
