# Data Source: NASA GEOS5 Near-Real-Time
# Model Time = 2010-06-01 06:00:00
# Location = [  39.7393, -104.9900 ]
# Fields = [ Z(km), T(K), U(m/s), V(m/s), R(g/cm3), P(mbar) ]
# Ground Height = 1.589
  0.000      3.00442e+02       6.12002e-01      -5.16841e-01       1.17368e-03       1.01202e+03
  0.100      2.99791e+02       6.22865e-01      -5.26315e-01       1.16247e-03       1.00019e+03
  0.200      2.99140e+02       6.33853e-01      -5.36271e-01       1.15137e-03       9.88493e+02
  0.300      2.98501e+02       6.37165e-01      -5.16731e-01       1.14034e-03       9.76929e+02
  0.400      2.97879e+02       6.30100e-01      -4.49098e-01       1.12935e-03       9.65493e+02
  0.500      2.97262e+02       6.44022e-01      -3.90724e-01       1.11844e-03       9.54185e+02
  0.600      2.96624e+02       7.18282e-01      -4.21325e-01       1.10771e-03       9.43004e+02
  0.700      2.95962e+02       8.12042e-01      -5.03128e-01       1.09717e-03       9.31951e+02
  0.800      2.95287e+02       8.28650e-01      -5.15718e-01       1.08679e-03       9.21026e+02
  0.900      2.94615e+02       7.52021e-01      -4.15659e-01       1.07650e-03       9.10227e+02
  1.000      2.93980e+02       6.82610e-01      -2.71786e-01       1.06617e-03       8.99550e+02
  1.100      2.93387e+02       7.03402e-01      -1.69076e-01       1.05579e-03       8.88995e+02
  1.200      2.92759e+02       8.04414e-01      -2.19121e-01       1.04563e-03       8.78556e+02
  1.300      2.92012e+02       9.50310e-01      -5.18503e-01       1.03598e-03       8.68229e+02
  1.400      2.91226e+02       1.04693e+00      -9.12383e-01       1.02656e-03       8.58016e+02
  1.500      2.90589e+02       9.61528e-01      -1.08021e+00       1.01670e-03       8.47922e+02
  1.600      2.90204e+02       6.30988e-01      -8.48938e-01       1.00608e-03       8.37950e+02
  1.700      2.89993e+02       1.46146e-01      -3.74882e-01       9.94976e-04       8.28099e+02
  1.800      2.89854e+02      -3.84147e-01       1.51830e-01       9.83757e-04       8.18369e+02
  1.900      2.89696e+02      -8.76810e-01       6.48131e-01       9.72730e-04       8.08755e+02
  2.000      2.89437e+02      -1.26470e+00       1.09710e+00       9.62162e-04       7.99254e+02
  2.100      2.89026e+02      -1.50216e+00       1.48655e+00       9.52208e-04       7.89860e+02
  2.200      2.88507e+02      -1.61080e+00       1.81615e+00       9.42698e-04       7.80570e+02
  2.300      2.87947e+02      -1.62530e+00       2.08777e+00       9.33408e-04       7.71377e+02
  2.400      2.87379e+02      -1.57365e+00       2.29764e+00       9.24225e-04       7.62279e+02
  2.500      2.86793e+02      -1.47511e+00       2.43461e+00       9.15172e-04       7.53274e+02
  2.600      2.86182e+02      -1.34755e+00       2.48853e+00       9.06273e-04       7.44360e+02
  2.700      2.85567e+02      -1.19838e+00       2.46929e+00       8.97458e-04       7.35536e+02
  2.800      2.84992e+02      -1.02772e+00       2.40083e+00       8.88590e-04       7.26800e+02
  2.900      2.84492e+02      -8.34825e-01       2.30563e+00       8.79561e-04       7.18153e+02
  3.000      2.84040e+02      -6.13811e-01       2.19287e+00       8.70460e-04       7.09595e+02
  3.100      2.83582e+02      -3.56439e-01       2.06565e+00       8.61463e-04       7.01128e+02
  3.200      2.83067e+02      -5.58344e-02       1.92943e+00       8.52722e-04       6.92753e+02
  3.300      2.82471e+02       2.86589e-01       1.80430e+00       8.44296e-04       6.84465e+02
  3.400      2.81783e+02       6.66342e-01       1.71575e+00       8.36208e-04       6.76256e+02
  3.500      2.80996e+02       1.08035e+00       1.68520e+00       8.28464e-04       6.68122e+02
  3.600      2.80138e+02       1.53459e+00       1.70808e+00       8.20974e-04       6.60061e+02
  3.700      2.79253e+02       2.03861e+00       1.76958e+00       8.13610e-04       6.52073e+02
  3.800      2.78379e+02       2.60147e+00       1.85594e+00       8.06258e-04       6.44158e+02
  3.900      2.77525e+02       3.22777e+00       1.96273e+00       7.98894e-04       6.36316e+02
  4.000      2.76680e+02       3.91974e+00       2.09053e+00       7.91546e-04       6.28545e+02
  4.100      2.75838e+02       4.67865e+00       2.23992e+00       7.84238e-04       6.20846e+02
  4.200      2.74991e+02       5.48776e+00       2.41059e+00       7.76986e-04       6.13216e+02
  4.300      2.74137e+02       6.31414e+00       2.60145e+00       7.69799e-04       6.05657e+02
  4.400      2.73272e+02       7.12437e+00       2.81137e+00       7.62686e-04       5.98168e+02
  4.500      2.72397e+02       7.89666e+00       3.03688e+00       7.55645e-04       5.90748e+02
  4.600      2.71517e+02       8.63201e+00       3.26988e+00       7.48662e-04       5.83398e+02
  4.700      2.70638e+02       9.33410e+00       3.50174e+00       7.41720e-04       5.76116e+02
  4.800      2.69764e+02       1.00050e+01       3.72483e+00       7.34803e-04       5.68901e+02
  4.900      2.68896e+02       1.06360e+01       3.93791e+00       7.27913e-04       5.61754e+02
  5.000      2.68032e+02       1.12146e+01       4.14224e+00       7.21057e-04       5.54675e+02
  5.100      2.67170e+02       1.17282e+01       4.33903e+00       7.14241e-04       5.47665e+02
  5.200      2.66310e+02       1.21754e+01       4.52598e+00       7.07464e-04       5.40723e+02
  5.300      2.65458e+02       1.25724e+01       4.69536e+00       7.00711e-04       5.33847e+02
  5.400      2.64619e+02       1.29368e+01       4.83896e+00       6.93966e-04       5.27037e+02
  5.500      2.63797e+02       1.32860e+01       4.94769e+00       6.87215e-04       5.20290e+02
  5.600      2.62998e+02       1.36364e+01       5.00318e+00       6.80450e-04       5.13606e+02
  5.700      2.62224e+02       1.40040e+01       4.98155e+00       6.73665e-04       5.06988e+02
  5.800      2.61479e+02       1.44047e+01       4.85887e+00       6.66854e-04       5.00437e+02
  5.900      2.60764e+02       1.48515e+01       4.62194e+00       6.60019e-04       4.93954e+02
  6.000      2.60072e+02       1.53434e+01       4.31002e+00       6.53180e-04       4.87539e+02
  6.100      2.59391e+02       1.58753e+01       3.97843e+00       6.46368e-04       4.81190e+02
  6.200      2.58708e+02       1.64421e+01       3.68248e+00       6.39612e-04       4.74907e+02
  6.300      2.58016e+02       1.70333e+01       3.46261e+00       6.32931e-04       4.68690e+02
  6.400      2.57318e+02       1.76185e+01       3.30232e+00       6.26316e-04       4.62537e+02
  6.500      2.56620e+02       1.81625e+01       3.17151e+00       6.19753e-04       4.56448e+02
  6.600      2.55928e+02       1.86301e+01       3.04008e+00       6.13225e-04       4.50422e+02
  6.700      2.55246e+02       1.89903e+01       2.88413e+00       6.06725e-04       4.44459e+02
  6.800      2.54568e+02       1.92338e+01       2.71056e+00       6.00265e-04       4.38560e+02
  6.900      2.53886e+02       1.93576e+01       2.53573e+00       5.93868e-04       4.32723e+02
  7.000      2.53190e+02       1.93589e+01       2.37604e+00       5.87554e-04       4.26948e+02
  7.100      2.52472e+02       1.92369e+01       2.24751e+00       5.81341e-04       4.21236e+02
  7.200      2.51732e+02       1.90146e+01       2.16208e+00       5.75227e-04       4.15586e+02
  7.300      2.50976e+02       1.87310e+01       2.12898e+00       5.69199e-04       4.09995e+02
  7.400      2.50208e+02       1.84253e+01       2.15740e+00       5.63243e-04       4.04463e+02
  7.500      2.49434e+02       1.81365e+01       2.25650e+00       5.57344e-04       3.98989e+02
  7.600      2.48657e+02       1.78894e+01       2.42627e+00       5.51492e-04       3.93570e+02
  7.700      2.47880e+02       1.76752e+01       2.64547e+00       5.45685e-04       3.88209e+02
  7.800      2.47103e+02       1.74800e+01       2.88982e+00       5.39920e-04       3.82903e+02
  7.900      2.46327e+02       1.72905e+01       3.13503e+00       5.34194e-04       3.77653e+02
  8.000      2.45553e+02       1.70934e+01       3.35729e+00       5.28506e-04       3.72458e+02
  8.100      2.44782e+02       1.68896e+01       3.54340e+00       5.22857e-04       3.67320e+02
  8.200      2.44012e+02       1.66937e+01       3.69104e+00       5.17249e-04       3.62237e+02
  8.300      2.43240e+02       1.65213e+01       3.79844e+00       5.11687e-04       3.57208e+02
  8.400      2.42466e+02       1.63878e+01       3.86377e+00       5.06174e-04       3.52235e+02
  8.500      2.41688e+02       1.63080e+01       3.88564e+00       5.00712e-04       3.47317e+02
  8.600      2.40905e+02       1.62841e+01       3.87024e+00       4.95305e-04       3.42452e+02
  8.700      2.40112e+02       1.63073e+01       3.83049e+00       4.89959e-04       3.37641e+02
  8.800      2.39307e+02       1.63683e+01       3.77953e+00       4.84676e-04       3.32881e+02
  8.900      2.38488e+02       1.64578e+01       3.73048e+00       4.79460e-04       3.28172e+02
  9.000      2.37652e+02       1.65668e+01       3.69644e+00       4.74316e-04       3.23513e+02
  9.100      2.36800e+02       1.66929e+01       3.68564e+00       4.69242e-04       3.18904e+02
  9.200      2.35936e+02       1.68449e+01       3.69862e+00       4.64225e-04       3.14344e+02
  9.300      2.35068e+02       1.70325e+01       3.73523e+00       4.59253e-04       3.09832e+02
  9.400      2.34200e+02       1.72655e+01       3.79529e+00       4.54315e-04       3.05370e+02
  9.500      2.33339e+02       1.75537e+01       3.87865e+00       4.49399e-04       3.00955e+02
  9.600      2.32492e+02       1.79038e+01       3.98481e+00       4.44495e-04       2.96590e+02
  9.700      2.31659e+02       1.83006e+01       4.11074e+00       4.39598e-04       2.92272e+02
  9.800      2.30842e+02       1.87179e+01       4.25216e+00       4.34709e-04       2.88002e+02
  9.900      2.30042e+02       1.91298e+01       4.40482e+00       4.29826e-04       2.83780e+02
 10.000      2.29259e+02       1.95103e+01       4.56445e+00       4.24949e-04       2.79606e+02
 10.100      2.28495e+02       1.98333e+01       4.72679e+00       4.20078e-04       2.75479e+02
 10.200      2.27749e+02       2.00784e+01       4.88877e+00       4.15214e-04       2.71400e+02
 10.300      2.27016e+02       2.02577e+01       5.05407e+00       4.10366e-04       2.67368e+02
 10.400      2.26290e+02       2.03947e+01       5.22878e+00       4.05547e-04       2.63383e+02
 10.500      2.25564e+02       2.05128e+01       5.41899e+00       4.00768e-04       2.59444e+02
 10.600      2.24831e+02       2.06356e+01       5.63078e+00       3.96042e-04       2.55552e+02
 10.700      2.24084e+02       2.07864e+01       5.87025e+00       3.91380e-04       2.51705e+02
 10.800      2.23318e+02       2.09877e+01       6.14281e+00       3.86792e-04       2.47904e+02
 10.900      2.22531e+02       2.12395e+01       6.44169e+00       3.82277e-04       2.44147e+02
 11.000      2.21730e+02       2.15225e+01       6.74952e+00       3.77825e-04       2.40435e+02
 11.100      2.20920e+02       2.18170e+01       7.04855e+00       3.73425e-04       2.36767e+02
 11.200      2.20106e+02       2.21031e+01       7.32105e+00       3.69067e-04       2.33142e+02
 11.300      2.19294e+02       2.23609e+01       7.54930e+00       3.64742e-04       2.29559e+02
 11.400      2.18489e+02       2.25707e+01       7.71555e+00       3.60439e-04       2.26019e+02
 11.500      2.17697e+02       2.27147e+01       7.80434e+00       3.56151e-04       2.22520e+02
 11.600      2.16924e+02       2.27968e+01       7.82286e+00       3.51868e-04       2.19063e+02
 11.700      2.16177e+02       2.28333e+01       7.79129e+00       3.47580e-04       2.15648e+02
 11.800      2.15462e+02       2.28406e+01       7.72996e+00       3.43279e-04       2.12275e+02
 11.900      2.14786e+02       2.28352e+01       7.65922e+00       3.38957e-04       2.08945e+02
 12.000      2.14156e+02       2.28334e+01       7.59940e+00       3.34605e-04       2.05657e+02
 12.100      2.13578e+02       2.28517e+01       7.57084e+00       3.30216e-04       2.02412e+02
 12.200      2.13060e+02       2.29063e+01       7.59381e+00       3.25782e-04       1.99210e+02
 12.300      2.12605e+02       2.30050e+01       7.67797e+00       3.21302e-04       1.96051e+02
 12.400      2.12215e+02       2.31380e+01       7.81239e+00       3.16777e-04       1.92936e+02
 12.500      2.11889e+02       2.32939e+01       7.98372e+00       3.12214e-04       1.89864e+02
 12.600      2.11628e+02       2.34609e+01       8.17863e+00       3.07617e-04       1.86838e+02
 12.700      2.11431e+02       2.36275e+01       8.38378e+00       3.02989e-04       1.83856e+02
 12.800      2.11299e+02       2.37821e+01       8.58583e+00       2.98337e-04       1.80920e+02
 12.900      2.11231e+02       2.39131e+01       8.77145e+00       2.93663e-04       1.78029e+02
 13.000      2.11229e+02       2.40089e+01       8.92729e+00       2.88974e-04       1.75183e+02
 13.100      2.11289e+02       2.40599e+01       9.04261e+00       2.84274e-04       1.72384e+02
 13.200      2.11405e+02       2.40660e+01       9.11927e+00       2.79580e-04       1.69630e+02
 13.300      2.11565e+02       2.40301e+01       9.16296e+00       2.74909e-04       1.66922e+02
 13.400      2.11759e+02       2.39549e+01       9.17935e+00       2.70275e-04       1.64259e+02
 13.500      2.11976e+02       2.38432e+01       9.17414e+00       2.65695e-04       1.61641e+02
 13.600      2.12206e+02       2.36979e+01       9.15301e+00       2.61182e-04       1.59068e+02
 13.700      2.12438e+02       2.35218e+01       9.12164e+00       2.56749e-04       1.56540e+02
 13.800      2.12662e+02       2.33176e+01       9.08571e+00       2.52408e-04       1.54055e+02
 13.900      2.12867e+02       2.30883e+01       9.05093e+00       2.48170e-04       1.51614e+02
 14.000      2.13043e+02       2.28366e+01       9.02290e+00       2.44044e-04       1.49217e+02
 14.100      2.13184e+02       2.25652e+01       9.00330e+00       2.40034e-04       1.46862e+02
 14.200      2.13293e+02       2.22769e+01       8.98761e+00       2.36131e-04       1.44548e+02
 14.300      2.13373e+02       2.19742e+01       8.97075e+00       2.32326e-04       1.42272e+02
 14.400      2.13428e+02       2.16598e+01       8.94768e+00       2.28612e-04       1.40033e+02
 14.500      2.13461e+02       2.13363e+01       8.91332e+00       2.24980e-04       1.37830e+02
 14.600      2.13475e+02       2.10064e+01       8.86261e+00       2.21424e-04       1.35661e+02
 14.700      2.13475e+02       2.06726e+01       8.79048e+00       2.17936e-04       1.33523e+02
 14.800      2.13462e+02       2.03376e+01       8.69187e+00       2.14510e-04       1.31417e+02
 14.900      2.13442e+02       2.00042e+01       8.56171e+00       2.11140e-04       1.29339e+02
 15.000      2.13416e+02       1.96748e+01       8.39494e+00       2.07819e-04       1.27290e+02
 15.100      2.13389e+02       1.93521e+01       8.18650e+00       2.04543e-04       1.25267e+02
 15.200      2.13363e+02       1.90383e+01       7.93252e+00       2.01307e-04       1.23271e+02
 15.300      2.13339e+02       1.87329e+01       7.63630e+00       1.98111e-04       1.21300e+02
 15.400      2.13318e+02       1.84343e+01       7.30381e+00       1.94957e-04       1.19357e+02
 15.500      2.13299e+02       1.81409e+01       6.94102e+00       1.91846e-04       1.17442e+02
 15.600      2.13283e+02       1.78512e+01       6.55391e+00       1.88780e-04       1.15556e+02
 15.700      2.13270e+02       1.75636e+01       6.14843e+00       1.85760e-04       1.13701e+02
 15.800      2.13259e+02       1.72766e+01       5.73057e+00       1.82788e-04       1.11876e+02
 15.900      2.13251e+02       1.69886e+01       5.30629e+00       1.79864e-04       1.10082e+02
 16.000      2.13246e+02       1.66981e+01       4.88156e+00       1.76990e-04       1.08321e+02
 16.100      2.13245e+02       1.64034e+01       4.46235e+00       1.74166e-04       1.06591e+02
 16.200      2.13246e+02       1.61031e+01       4.05463e+00       1.71393e-04       1.04895e+02
 16.300      2.13251e+02       1.57956e+01       3.66438e+00       1.68672e-04       1.03232e+02
 16.400      2.13259e+02       1.54793e+01       3.29755e+00       1.66004e-04       1.01603e+02
 16.500      2.13270e+02       1.51526e+01       2.96013e+00       1.63389e-04       1.00008e+02
 16.600      2.13286e+02       1.48144e+01       2.65684e+00       1.60827e-04       9.84468e+01
 16.700      2.13304e+02       1.44651e+01       2.38736e+00       1.58316e-04       9.69183e+01
 16.800      2.13326e+02       1.41055e+01       2.15011e+00       1.55854e-04       9.54209e+01
 16.900      2.13351e+02       1.37363e+01       1.94349e+00       1.53438e-04       9.39531e+01
 17.000      2.13380e+02       1.33583e+01       1.76591e+00       1.51067e-04       9.25135e+01
 17.100      2.13412e+02       1.29723e+01       1.61578e+00       1.48738e-04       9.11009e+01
 17.200      2.13447e+02       1.25791e+01       1.49149e+00       1.46450e-04       8.97139e+01
 17.300      2.13485e+02       1.21795e+01       1.39147e+00       1.44200e-04       8.83512e+01
 17.400      2.13526e+02       1.17742e+01       1.31411e+00       1.41986e-04       8.70117e+01
 17.500      2.13570e+02       1.13641e+01       1.25783e+00       1.39808e-04       8.56944e+01
 17.600      2.13616e+02       1.09499e+01       1.22102e+00       1.37662e-04       8.43980e+01
 17.700      2.13666e+02       1.05324e+01       1.20211e+00       1.35549e-04       8.31215e+01
 17.800      2.13719e+02       1.01124e+01       1.19948e+00       1.33466e-04       8.18642e+01
 17.900      2.13774e+02       9.69063e+00       1.21156e+00       1.31411e-04       8.06248e+01
 18.000      2.13831e+02       9.26795e+00       1.23675e+00       1.29384e-04       7.94026e+01
 18.100      2.13892e+02       8.84510e+00       1.27345e+00       1.27383e-04       7.81968e+01
 18.200      2.13954e+02       8.42288e+00       1.32007e+00       1.25408e-04       7.70064e+01
 18.300      2.14019e+02       8.00207e+00       1.37502e+00       1.23456e-04       7.58309e+01
 18.400      2.14087e+02       7.58344e+00       1.43671e+00       1.21526e-04       7.46694e+01
 18.500      2.14157e+02       7.16778e+00       1.50354e+00       1.19619e-04       7.35211e+01
 18.600      2.14229e+02       6.75588e+00       1.57392e+00       1.17732e-04       7.23856e+01
 18.700      2.14303e+02       6.34852e+00       1.64626e+00       1.15864e-04       7.12622e+01
 18.800      2.14379e+02       5.94648e+00       1.71896e+00       1.14016e-04       7.01502e+01
 18.900      2.14457e+02       5.55050e+00       1.79056e+00       1.12185e-04       6.90493e+01
 19.000      2.14537e+02       5.16103e+00       1.86046e+00       1.10374e-04       6.79597e+01
 19.100      2.14619e+02       4.77842e+00       1.92832e+00       1.08582e-04       6.68820e+01
 19.200      2.14703e+02       4.40301e+00       1.99385e+00       1.06811e-04       6.58167e+01
 19.300      2.14789e+02       4.03517e+00       2.05672e+00       1.05061e-04       6.47643e+01
 19.400      2.14877e+02       3.67523e+00       2.11663e+00       1.03333e-04       6.37252e+01
 19.500      2.14966e+02       3.32354e+00       2.17326e+00       1.01628e-04       6.26998e+01
 19.600      2.15057e+02       2.98045e+00       2.22630e+00       9.99469e-05       6.16885e+01
 19.700      2.15149e+02       2.64630e+00       2.27544e+00       9.82895e-05       6.06916e+01
 19.800      2.15243e+02       2.32146e+00       2.32037e+00       9.66566e-05       5.97095e+01
 19.900      2.15339e+02       2.00626e+00       2.36076e+00       9.50488e-05       5.87423e+01
 20.000      2.15436e+02       1.70104e+00       2.39632e+00       9.34664e-05       5.77904e+01
 20.100      2.15535e+02       1.40617e+00       2.42673e+00       9.19098e-05       5.68540e+01
 20.200      2.15634e+02       1.12199e+00       2.45167e+00       9.03795e-05       5.59332e+01
 20.300      2.15736e+02       8.48841e-01       2.47084e+00       8.88755e-05       5.50283e+01
