# Data Source: NASA GEOS5 Near-Real-Time
# Model Time = 2010-05-02 12:00:00
# Location = [  39.7393, -104.9900 ]
# Fields = [ Z(km), T(K), U(m/s), V(m/s), R(g/cm3), P(mbar) ]
# Ground Height = 1.589
  0.000      2.86657e+02       2.15234e+00      -3.10588e+00       1.21861e-03       1.00256e+03
  0.100      2.86024e+02       2.12434e+00      -3.07900e+00       1.20686e-03       9.90696e+02
  0.200      2.85380e+02       2.09661e+00      -3.05539e+00       1.19525e-03       9.78962e+02
  0.300      2.84717e+02       2.07100e+00      -3.04008e+00       1.18381e-03       9.67338e+02
  0.400      2.84034e+02       2.06711e+00      -3.04874e+00       1.17253e-03       9.55819e+02
  0.500      2.83342e+02       2.11391e+00      -3.10237e+00       1.16136e-03       9.44408e+02
  0.600      2.82645e+02       2.18541e+00      -3.18370e+00       1.15029e-03       9.33106e+02
  0.700      2.81948e+02       2.19979e+00      -3.23655e+00       1.13930e-03       9.21914e+02
  0.800      2.81263e+02       2.13255e+00      -3.24209e+00       1.12835e-03       9.10832e+02
  0.900      2.80620e+02       2.06726e+00      -3.25220e+00       1.11731e-03       8.99860e+02
  1.000      2.80032e+02       2.06603e+00      -3.30062e+00       1.10614e-03       8.88994e+02
  1.100      2.79434e+02       2.06469e+00      -3.32280e+00       1.09509e-03       8.78233e+02
  1.200      2.78750e+02       1.98010e+00      -3.24472e+00       1.08445e-03       8.67574e+02
  1.300      2.78011e+02       1.84781e+00      -3.13997e+00       1.07411e-03       8.57019e+02
  1.400      2.77303e+02       1.77272e+00      -3.16813e+00       1.06372e-03       8.46571e+02
  1.500      2.76696e+02       1.79320e+00      -3.38866e+00       1.05303e-03       8.36230e+02
  1.600      2.76229e+02       1.84196e+00      -3.70229e+00       1.04190e-03       8.25996e+02
  1.700      2.75920e+02       1.84901e+00      -4.00793e+00       1.03028e-03       8.15869e+02
  1.800      2.75707e+02       1.77965e+00      -4.26913e+00       1.01842e-03       8.05852e+02
  1.900      2.75499e+02       1.61219e+00      -4.47134e+00       1.00666e-03       7.95952e+02
  2.000      2.75239e+02       1.36899e+00      -4.60903e+00       9.95229e-04       7.86168e+02
  2.100      2.74909e+02       1.12814e+00      -4.68805e+00       9.84164e-04       7.76495e+02
  2.200      2.74496e+02       9.58666e-01      -4.71240e+00       9.73499e-04       7.66927e+02
  2.300      2.74012e+02       8.48416e-01      -4.66910e+00       9.63180e-04       7.57460e+02
  2.400      2.73477e+02       7.53276e-01      -4.53856e+00       9.53129e-04       7.48091e+02
  2.500      2.72903e+02       6.50531e-01      -4.31420e+00       9.43294e-04       7.38818e+02
  2.600      2.72290e+02       5.64783e-01      -4.01806e+00       9.33674e-04       7.29640e+02
  2.700      2.71633e+02       5.25929e-01      -3.67587e+00       9.24279e-04       7.20556e+02
  2.800      2.70939e+02       5.39600e-01      -3.31018e+00       9.15083e-04       7.11565e+02
  2.900      2.70223e+02       5.86544e-01      -2.94022e+00       9.06031e-04       7.02665e+02
  3.000      2.69499e+02       6.45731e-01      -2.58346e+00       8.97073e-04       6.93852e+02
  3.100      2.68761e+02       6.89385e-01      -2.24058e+00       8.88222e-04       6.85126e+02
  3.200      2.67996e+02       6.85736e-01      -1.90229e+00       8.79525e-04       6.76486e+02
  3.300      2.67191e+02       6.10000e-01      -1.55901e+00       8.71018e-04       6.67931e+02
  3.400      2.66353e+02       4.85115e-01      -1.20005e+00       8.62679e-04       6.59460e+02
  3.500      2.65493e+02       3.53836e-01      -8.14262e-01       8.54462e-04       6.51070e+02
  3.600      2.64624e+02       2.55390e-01      -3.95125e-01       8.46323e-04       6.42758e+02
  3.700      2.63753e+02       2.07814e-01       3.66404e-02       8.38241e-04       6.34525e+02
  3.800      2.62885e+02       2.21408e-01       4.50351e-01       8.30201e-04       6.26369e+02
  3.900      2.62022e+02       3.05957e-01       8.17778e-01       8.22193e-04       6.18291e+02
  4.000      2.61163e+02       4.67884e-01       1.12718e+00       8.14224e-04       6.10291e+02
  4.100      2.60302e+02       7.12228e-01       1.37358e+00       8.06311e-04       6.02367e+02
  4.200      2.59435e+02       1.04116e+00       1.55317e+00       7.98467e-04       5.94521e+02
  4.300      2.58563e+02       1.42720e+00       1.67395e+00       7.90689e-04       5.86751e+02
  4.400      2.57692e+02       1.82531e+00       1.75086e+00       7.82959e-04       5.79057e+02
  4.500      2.56825e+02       2.19138e+00       1.79909e+00       7.75265e-04       5.71438e+02
  4.600      2.55967e+02       2.51123e+00       1.83730e+00       7.67594e-04       5.63893e+02
  4.700      2.55120e+02       2.80321e+00       1.88794e+00       7.59938e-04       5.56424e+02
  4.800      2.54289e+02       3.08727e+00       1.97360e+00       7.52291e-04       5.49030e+02
  4.900      2.53474e+02       3.37618e+00       2.10776e+00       7.44652e-04       5.41712e+02
  5.000      2.52669e+02       3.66324e+00       2.27908e+00       7.37036e-04       5.34468e+02
  5.100      2.51868e+02       3.93846e+00       2.47207e+00       7.29462e-04       5.27299e+02
  5.200      2.51064e+02       4.19298e+00       2.67177e+00       7.21948e-04       5.20203e+02
  5.300      2.50256e+02       4.43036e+00       2.86935e+00       7.14503e-04       5.13180e+02
  5.400      2.49439e+02       4.66197e+00       3.05982e+00       7.07131e-04       5.06228e+02
  5.500      2.48613e+02       4.89930e+00       3.23823e+00       6.99837e-04       4.99348e+02
  5.600      2.47779e+02       5.15257e+00       3.40195e+00       6.92621e-04       4.92540e+02
  5.700      2.46941e+02       5.42829e+00       3.55530e+00       6.85464e-04       4.85802e+02
  5.800      2.46107e+02       5.73226e+00       3.70389e+00       6.78345e-04       4.79135e+02
  5.900      2.45286e+02       6.06994e+00       3.85333e+00       6.71246e-04       4.72537e+02
  6.000      2.44477e+02       6.43200e+00       4.00777e+00       6.64161e-04       4.66008e+02
  6.100      2.43675e+02       6.78857e+00       4.16937e+00       6.57110e-04       4.59548e+02
  6.200      2.42873e+02       7.10824e+00       4.34015e+00       6.50112e-04       4.53157e+02
  6.300      2.42064e+02       7.36045e+00       4.52204e+00       6.43183e-04       4.46834e+02
  6.400      2.41245e+02       7.53317e+00       4.71496e+00       6.36332e-04       4.40579e+02
  6.500      2.40417e+02       7.63291e+00       4.91685e+00       6.29554e-04       4.34389e+02
  6.600      2.39581e+02       7.66695e+00       5.12555e+00       6.22845e-04       4.28266e+02
  6.700      2.38738e+02       7.64279e+00       5.33877e+00       6.16200e-04       4.22206e+02
  6.800      2.37889e+02       7.57405e+00       5.55076e+00       6.09617e-04       4.16211e+02
  6.900      2.37038e+02       7.48106e+00       5.75195e+00       6.03088e-04       4.10280e+02
  7.000      2.36185e+02       7.38451e+00       5.93257e+00       5.96611e-04       4.04413e+02
  7.100      2.35334e+02       7.30505e+00       6.08295e+00       5.90179e-04       3.98611e+02
  7.200      2.34487e+02       7.25626e+00       6.20628e+00       5.83784e-04       3.92874e+02
  7.300      2.33655e+02       7.23762e+00       6.33138e+00       5.77403e-04       3.87200e+02
  7.400      2.32844e+02       7.24697e+00       6.49013e+00       5.71016e-04       3.81589e+02
  7.500      2.32065e+02       7.28213e+00       6.71440e+00       5.64602e-04       3.76040e+02
  7.600      2.31324e+02       7.33865e+00       7.03224e+00       5.58145e-04       3.70552e+02
  7.700      2.30617e+02       7.39581e+00       7.44451e+00       5.51657e-04       3.65125e+02
  7.800      2.29936e+02       7.42583e+00       7.94027e+00       5.45162e-04       3.59761e+02
  7.900      2.29273e+02       7.40092e+00       8.50852e+00       5.38683e-04       3.54461e+02
  8.000      2.28620e+02       7.29330e+00       9.13825e+00       5.32242e-04       3.49225e+02
  8.100      2.27968e+02       7.09108e+00       9.81122e+00       5.25861e-04       3.44055e+02
  8.200      2.27309e+02       6.82337e+00       1.04905e+01       5.19558e-04       3.38947e+02
  8.300      2.26631e+02       6.52579e+00       1.11362e+01       5.13353e-04       3.33901e+02
  8.400      2.25927e+02       6.23396e+00       1.17084e+01       5.07262e-04       3.28914e+02
  8.500      2.25187e+02       5.98345e+00       1.21673e+01       5.01302e-04       3.23984e+02
  8.600      2.24413e+02       5.80250e+00       1.24777e+01       4.95465e-04       3.19112e+02
  8.700      2.23636e+02       5.70322e+00       1.26144e+01       4.89686e-04       3.14297e+02
  8.800      2.22887e+02       5.69562e+00       1.25538e+01       4.83895e-04       3.09540e+02
  8.900      2.22199e+02       5.78969e+00       1.22721e+01       4.78025e-04       3.04843e+02
  9.000      2.21606e+02       5.99543e+00       1.17457e+01       4.72012e-04       3.00205e+02
  9.100      2.21134e+02       6.31355e+00       1.09673e+01       4.65808e-04       2.95627e+02
  9.200      2.20776e+02       6.70234e+00       1.00051e+01       4.59434e-04       2.91110e+02
  9.300      2.20520e+02       7.10801e+00       8.94867e+00       4.52929e-04       2.86655e+02
  9.400      2.20351e+02       7.47674e+00       7.88780e+00       4.46332e-04       2.82264e+02
  9.500      2.20255e+02       7.75471e+00       6.91210e+00       4.39680e-04       2.77936e+02
  9.600      2.20219e+02       7.88860e+00       6.11066e+00       4.33007e-04       2.73673e+02
  9.700      2.20234e+02       7.85898e+00       5.52924e+00       4.26334e-04       2.69474e+02
  9.800      2.20306e+02       7.70194e+00       5.14270e+00       4.19658e-04       2.65341e+02
  9.900      2.20440e+02       7.45869e+00       4.91937e+00       4.12976e-04       2.61274e+02
 10.000      2.20639e+02       7.17043e+00       4.82758e+00       4.06284e-04       2.57272e+02
 10.100      2.20909e+02       6.87837e+00       4.83564e+00       3.99579e-04       2.53337e+02
 10.200      2.21256e+02       6.62372e+00       4.91190e+00       3.92860e-04       2.49468e+02
 10.300      2.21678e+02       6.43591e+00       5.02843e+00       3.86133e-04       2.45664e+02
 10.400      2.22165e+02       6.31319e+00       5.16733e+00       3.79425e-04       2.41927e+02
 10.500      2.22701e+02       6.24869e+00       5.31235e+00       3.72765e-04       2.38254e+02
 10.600      2.23272e+02       6.23554e+00       5.44720e+00       3.66180e-04       2.34645e+02
 10.700      2.23864e+02       6.26685e+00       5.55563e+00       3.59694e-04       2.31099e+02
 10.800      2.24461e+02       6.33576e+00       5.62137e+00       3.53329e-04       2.27616e+02
 10.900      2.25051e+02       6.43540e+00       5.62821e+00       3.47108e-04       2.24196e+02
 11.000      2.25620e+02       6.56023e+00       5.56882e+00       3.41044e-04       2.20836e+02
 11.100      2.26161e+02       6.70736e+00       5.45368e+00       3.35142e-04       2.17535e+02
 11.200      2.26668e+02       6.87422e+00       5.29543e+00       3.29407e-04       2.14291e+02
 11.300      2.27133e+02       7.05825e+00       5.10670e+00       3.23840e-04       2.11103e+02
 11.400      2.27551e+02       7.25688e+00       4.90014e+00       3.18446e-04       2.07968e+02
 11.500      2.27913e+02       7.46755e+00       4.68836e+00       3.13226e-04       2.04884e+02
 11.600      2.28214e+02       7.68768e+00       4.48400e+00       3.08182e-04       2.01851e+02
 11.700      2.28447e+02       7.91468e+00       4.29960e+00       3.03316e-04       1.98867e+02
 11.800      2.28610e+02       8.14400e+00       4.14291e+00       2.98623e-04       1.95929e+02
 11.900      2.28706e+02       8.36853e+00       4.01519e+00       2.94090e-04       1.93037e+02
 12.000      2.28743e+02       8.58092e+00       3.91723e+00       2.89704e-04       1.90189e+02
 12.100      2.28723e+02       8.77387e+00       3.84984e+00       2.85454e-04       1.87383e+02
 12.200      2.28654e+02       8.94003e+00       3.81380e+00       2.81328e-04       1.84617e+02
 12.300      2.28538e+02       9.07210e+00       3.80992e+00       2.77314e-04       1.81891e+02
 12.400      2.28382e+02       9.16274e+00       3.83897e+00       2.73403e-04       1.79204e+02
 12.500      2.28190e+02       9.20464e+00       3.90177e+00       2.69585e-04       1.76553e+02
 12.600      2.27968e+02       9.19067e+00       3.99901e+00       2.65851e-04       1.73938e+02
 12.700      2.27721e+02       9.12160e+00       4.12783e+00       2.62192e-04       1.71358e+02
 12.800      2.27453e+02       9.00820e+00       4.28084e+00       2.58602e-04       1.68813e+02
 12.900      2.27171e+02       8.86190e+00       4.45037e+00       2.55074e-04       1.66303e+02
 13.000      2.26879e+02       8.69413e+00       4.62873e+00       2.51600e-04       1.63828e+02
 13.100      2.26583e+02       8.51632e+00       4.80824e+00       2.48176e-04       1.61387e+02
 13.200      2.26289e+02       8.33988e+00       4.98122e+00       2.44795e-04       1.58982e+02
 13.300      2.26001e+02       8.17626e+00       5.14000e+00       2.41451e-04       1.56611e+02
 13.400      2.25725e+02       8.03687e+00       5.27688e+00       2.38140e-04       1.54274e+02
 13.500      2.25467e+02       7.93314e+00       5.38419e+00       2.34856e-04       1.51973e+02
 13.600      2.25231e+02       7.87649e+00       5.45425e+00       2.31594e-04       1.49705e+02
 13.700      2.25021e+02       7.87386e+00       5.48195e+00       2.28351e-04       1.47471e+02
 13.800      2.24835e+02       7.91996e+00       5.46910e+00       2.25129e-04       1.45270e+02
 13.900      2.24671e+02       8.00748e+00       5.41870e+00       2.21929e-04       1.43101e+02
 14.000      2.24525e+02       8.12910e+00       5.33373e+00       2.18755e-04       1.40962e+02
 14.100      2.24394e+02       8.27750e+00       5.21718e+00       2.15607e-04       1.38853e+02
 14.200      2.24275e+02       8.44536e+00       5.07205e+00       2.12487e-04       1.36772e+02
 14.300      2.24167e+02       8.62535e+00       4.90131e+00       2.09398e-04       1.34718e+02
 14.400      2.24065e+02       8.81016e+00       4.70797e+00       2.06340e-04       1.32691e+02
 14.500      2.23967e+02       8.99247e+00       4.49501e+00       2.03316e-04       1.30689e+02
 14.600      2.23870e+02       9.16496e+00       4.26541e+00       2.00327e-04       1.28711e+02
 14.700      2.23771e+02       9.32030e+00       4.02218e+00       1.97374e-04       1.26758e+02
 14.800      2.23668e+02       9.45118e+00       3.76829e+00       1.94458e-04       1.24827e+02
 14.900      2.23557e+02       9.55229e+00       3.50657e+00       1.91580e-04       1.22920e+02
 15.000      2.23440e+02       9.62448e+00       3.23936e+00       1.88742e-04       1.21035e+02
 15.100      2.23317e+02       9.66976e+00       2.96889e+00       1.85944e-04       1.19175e+02
 15.200      2.23189e+02       9.69018e+00       2.69739e+00       1.83187e-04       1.17341e+02
 15.300      2.23056e+02       9.68774e+00       2.42709e+00       1.80471e-04       1.15532e+02
 15.400      2.22920e+02       9.66447e+00       2.16024e+00       1.77796e-04       1.13750e+02
 15.500      2.22780e+02       9.62239e+00       1.89906e+00       1.75164e-04       1.11996e+02
 15.600      2.22638e+02       9.56353e+00       1.64578e+00       1.72575e-04       1.10270e+02
 15.700      2.22495e+02       9.48991e+00       1.40265e+00       1.70028e-04       1.08573e+02
 15.800      2.22351e+02       9.40356e+00       1.17190e+00       1.67525e-04       1.06906e+02
 15.900      2.22206e+02       9.30649e+00       9.55753e-01       1.65066e-04       1.05268e+02
 16.000      2.22062e+02       9.20073e+00       7.56452e-01       1.62651e-04       1.03660e+02
 16.100      2.21919e+02       9.08830e+00       5.76230e-01       1.60279e-04       1.02083e+02
 16.200      2.21778e+02       8.97123e+00       4.17321e-01       1.57952e-04       1.00537e+02
 16.300      2.21640e+02       8.85145e+00       2.81815e-01       1.55668e-04       9.90216e+01
 16.400      2.21504e+02       8.72987e+00       1.69958e-01       1.53428e-04       9.75367e+01
 16.500      2.21371e+02       8.60667e+00       8.07649e-02       1.51228e-04       9.60808e+01
 16.600      2.21241e+02       8.48203e+00       1.32220e-02       1.49068e-04       9.46523e+01
 16.700      2.21114e+02       8.35614e+00      -3.36838e-02       1.46944e-04       9.32500e+01
 16.800      2.20989e+02       8.22917e+00      -6.09657e-02       1.44855e-04       9.18727e+01
 16.900      2.20866e+02       8.10129e+00      -6.96377e-02       1.42800e-04       9.05191e+01
 17.000      2.20746e+02       7.97270e+00      -6.07123e-02       1.40777e-04       8.91881e+01
 17.100      2.20628e+02       7.84356e+00      -3.52029e-02       1.38784e-04       8.78785e+01
 17.200      2.20512e+02       7.71406e+00       5.87755e-03       1.36820e-04       8.65894e+01
 17.300      2.20398e+02       7.58438e+00       6.15144e-02       1.34884e-04       8.53197e+01
 17.400      2.20287e+02       7.45469e+00       1.30697e-01       1.32973e-04       8.40686e+01
 17.500      2.20177e+02       7.32517e+00       2.12410e-01       1.31087e-04       8.28349e+01
 17.600      2.20069e+02       7.19601e+00       3.05642e-01       1.29224e-04       8.16179e+01
 17.700      2.19963e+02       7.06737e+00       4.09378e-01       1.27384e-04       8.04168e+01
 17.800      2.19859e+02       6.93945e+00       5.22604e-01       1.25565e-04       7.92308e+01
 17.900      2.19756e+02       6.81241e+00       6.44310e-01       1.23766e-04       7.80590e+01
 18.000      2.19655e+02       6.68643e+00       7.73481e-01       1.21985e-04       7.69008e+01
 18.100      2.19555e+02       6.56171e+00       9.09104e-01       1.20223e-04       7.57555e+01
 18.200      2.19457e+02       6.43840e+00       1.05017e+00       1.18478e-04       7.46224e+01
 18.300      2.19360e+02       6.31670e+00       1.19565e+00       1.16749e-04       7.35010e+01
 18.400      2.19264e+02       6.19679e+00       1.34455e+00       1.15036e-04       7.23907e+01
 18.500      2.19170e+02       6.07883e+00       1.49585e+00       1.13337e-04       7.12908e+01
 18.600      2.19077e+02       5.96301e+00       1.64853e+00       1.11652e-04       7.02009e+01
 18.700      2.18984e+02       5.84954e+00       1.80163e+00       1.09980e-04       6.91207e+01
 18.800      2.18893e+02       5.73885e+00       1.95444e+00       1.08322e-04       6.80503e+01
 18.900      2.18803e+02       5.63148e+00       2.10639e+00       1.06679e-04       6.69905e+01
 19.000      2.18715e+02       5.52796e+00       2.25689e+00       1.05051e-04       6.59417e+01
 19.100      2.18628e+02       5.42881e+00       2.40538e+00       1.03440e-04       6.49045e+01
 19.200      2.18544e+02       5.33456e+00       2.55127e+00       1.01845e-04       6.38794e+01
 19.300      2.18462e+02       5.24576e+00       2.69399e+00       1.00269e-04       6.28669e+01
 19.400      2.18382e+02       5.16292e+00       2.83296e+00       9.87102e-05       6.18672e+01
 19.500      2.18305e+02       5.08658e+00       2.96759e+00       9.71709e-05       6.08809e+01
 19.600      2.18231e+02       5.01727e+00       3.09732e+00       9.56510e-05       5.99083e+01
 19.700      2.18160e+02       4.95552e+00       3.22157e+00       9.41511e-05       5.89497e+01
 19.800      2.18092e+02       4.90186e+00       3.33975e+00       9.26718e-05       5.80054e+01
 19.900      2.18028e+02       4.85682e+00       3.45129e+00       9.12132e-05       5.70757e+01
 20.000      2.17967e+02       4.82094e+00       3.55562e+00       8.97760e-05       5.61608e+01
 20.100      2.17911e+02       4.79473e+00       3.65215e+00       8.83603e-05       5.52608e+01
 20.200      2.17858e+02       4.77875e+00       3.74030e+00       8.69666e-05       5.43761e+01
 20.300      2.17810e+02       4.77350e+00       3.81951e+00       8.55950e-05       5.35067e+01
