# Data Source: NASA GEOS5 Near-Real-Time
# Model Time = 2010-05-01 12:00:00
# Location = [  39.7393, -104.9900 ]
# Fields = [ Z(km), T(K), U(m/s), V(m/s), R(g/cm3), P(mbar) ]
# Ground Height = 1.589
  0.000      2.83417e+02       4.30580e+00      -1.32954e+00       1.24103e-03       1.00946e+03
  0.100      2.82776e+02       4.27195e+00      -1.34970e+00       1.22893e-03       9.97357e+02
  0.200      2.82135e+02       4.24182e+00      -1.37214e+00       1.21695e-03       9.85394e+02
  0.300      2.81487e+02       4.23233e+00      -1.40721e+00       1.20509e-03       9.73553e+02
  0.400      2.80827e+02       4.24961e+00      -1.45629e+00       1.19337e-03       9.61822e+02
  0.500      2.80145e+02       4.26978e+00      -1.49580e+00       1.18182e-03       9.50205e+02
  0.600      2.79439e+02       4.26515e+00      -1.50347e+00       1.17048e-03       9.38709e+02
  0.700      2.78739e+02       4.21404e+00      -1.48069e+00       1.15919e-03       9.27327e+02
  0.800      2.78082e+02       4.10723e+00      -1.44010e+00       1.14780e-03       9.16054e+02
  0.900      2.77471e+02       4.01775e+00      -1.43211e+00       1.13631e-03       9.04889e+02
  1.000      2.76888e+02       4.04722e+00      -1.51799e+00       1.12479e-03       8.93836e+02
  1.100      2.76287e+02       4.14071e+00      -1.64738e+00       1.11344e-03       8.82894e+02
  1.200      2.75592e+02       4.11026e+00      -1.67515e+00       1.10255e-03       8.72062e+02
  1.300      2.74797e+02       3.89476e+00      -1.55666e+00       1.09214e-03       8.61336e+02
  1.400      2.74021e+02       3.67281e+00      -1.43655e+00       1.08173e-03       8.50714e+02
  1.500      2.73378e+02       3.61244e+00      -1.44137e+00       1.07086e-03       8.40194e+02
  1.600      2.72877e+02       3.70471e+00      -1.51026e+00       1.05953e-03       8.29780e+02
  1.700      2.72497e+02       3.88780e+00      -1.52916e+00       1.04784e-03       8.19476e+02
  1.800      2.72205e+02       4.12479e+00      -1.46472e+00       1.03592e-03       8.09288e+02
  1.900      2.71964e+02       4.40132e+00      -1.35677e+00       1.02393e-03       7.99219e+02
  2.000      2.71737e+02       4.69879e+00      -1.24127e+00       1.01203e-03       7.89271e+02
  2.100      2.71497e+02       4.98257e+00      -1.13343e+00       1.00031e-03       7.79441e+02
  2.200      2.71219e+02       5.21654e+00      -1.04333e+00       9.88855e-04       7.69724e+02
  2.300      2.70889e+02       5.39615e+00      -9.60536e-01       9.77703e-04       7.60117e+02
  2.400      2.70501e+02       5.54501e+00      -8.56428e-01       9.66867e-04       7.50615e+02
  2.500      2.70050e+02       5.68478e+00      -7.11873e-01       9.56353e-04       7.41216e+02
  2.600      2.69533e+02       5.82290e+00      -5.57064e-01       9.46168e-04       7.31916e+02
  2.700      2.68944e+02       5.96247e+00      -4.37064e-01       9.36319e-04       7.22715e+02
  2.800      2.68291e+02       6.10665e+00      -3.83860e-01       9.26770e-04       7.13609e+02
  2.900      2.67608e+02       6.25869e+00      -4.03991e-01       9.17402e-04       7.04597e+02
  3.000      2.66927e+02       6.42156e+00      -5.00982e-01       9.08096e-04       6.95676e+02
  3.100      2.66261e+02       6.59167e+00      -6.76412e-01       8.98811e-04       6.86844e+02
  3.200      2.65597e+02       6.75862e+00      -9.29832e-01       8.89587e-04       6.78101e+02
  3.300      2.64924e+02       6.91123e+00      -1.25896e+00       8.80467e-04       6.69448e+02
  3.400      2.64233e+02       7.03259e+00      -1.63941e+00       8.71479e-04       6.60884e+02
  3.500      2.63514e+02       7.10183e+00      -2.03159e+00       8.62645e-04       6.52407e+02
  3.600      2.62763e+02       7.10214e+00      -2.39759e+00       8.53984e-04       6.44016e+02
  3.700      2.61984e+02       7.05714e+00      -2.71862e+00       8.45476e-04       6.35708e+02
  3.800      2.61186e+02       7.01341e+00      -2.98678e+00       8.37086e-04       6.27482e+02
  3.900      2.60379e+02       7.01418e+00      -3.19397e+00       8.28778e-04       6.19336e+02
  4.000      2.59577e+02       7.06475e+00      -3.32879e+00       8.20514e-04       6.11271e+02
  4.100      2.58791e+02       7.14782e+00      -3.37785e+00       8.12256e-04       6.03286e+02
  4.200      2.58034e+02       7.24640e+00      -3.32949e+00       8.03968e-04       5.95384e+02
  4.300      2.57304e+02       7.35291e+00      -3.19964e+00       7.95658e-04       5.87563e+02
  4.400      2.56587e+02       7.46732e+00      -3.02633e+00       7.87370e-04       5.79822e+02
  4.500      2.55869e+02       7.58972e+00      -2.84785e+00       7.79144e-04       5.72159e+02
  4.600      2.55142e+02       7.71539e+00      -2.68579e+00       7.71005e-04       5.64574e+02
  4.700      2.54407e+02       7.83295e+00      -2.53835e+00       7.62953e-04       5.57069e+02
  4.800      2.53665e+02       7.93052e+00      -2.40203e+00       7.54986e-04       5.49644e+02
  4.900      2.52916e+02       8.00354e+00      -2.27057e+00       7.47104e-04       5.42300e+02
  5.000      2.52163e+02       8.07295e+00      -2.12823e+00       7.39296e-04       5.35035e+02
  5.100      2.51408e+02       8.16518e+00      -1.95722e+00       7.31555e-04       5.27846e+02
  5.200      2.50652e+02       8.30426e+00      -1.74110e+00       7.23871e-04       5.20732e+02
  5.300      2.49898e+02       8.47847e+00      -1.48336e+00       7.16237e-04       5.13691e+02
  5.400      2.49148e+02       8.64867e+00      -1.20276e+00       7.08649e-04       5.06724e+02
  5.500      2.48405e+02       8.77500e+00      -9.18483e-01       7.01100e-04       4.99829e+02
  5.600      2.47669e+02       8.82756e+00      -6.48316e-01       6.93587e-04       4.93009e+02
  5.700      2.46944e+02       8.81331e+00      -4.04959e-01       6.86104e-04       4.86261e+02
  5.800      2.46230e+02       8.74777e+00      -1.99927e-01       6.78648e-04       4.79587e+02
  5.900      2.45530e+02       8.64643e+00      -4.45731e-02       6.71216e-04       4.72987e+02
  6.000      2.44842e+02       8.52264e+00       6.18045e-02       6.63814e-04       4.66459e+02
  6.100      2.44159e+02       8.38620e+00       1.39998e-01       6.56459e-04       4.60004e+02
  6.200      2.43473e+02       8.24655e+00       2.12705e-01       6.49173e-04       4.53620e+02
  6.300      2.42776e+02       8.11296e+00       3.02145e-01       6.41973e-04       4.47307e+02
  6.400      2.42067e+02       7.98811e+00       4.14753e-01       6.34866e-04       4.41063e+02
  6.500      2.41350e+02       7.86679e+00       5.37908e-01       6.27840e-04       4.34888e+02
  6.600      2.40627e+02       7.74331e+00       6.57853e-01       6.20884e-04       4.28782e+02
  6.700      2.39903e+02       7.61182e+00       7.60676e-01       6.13988e-04       4.22744e+02
  6.800      2.39181e+02       7.46002e+00       8.25565e-01       6.07144e-04       4.16773e+02
  6.900      2.38462e+02       7.26661e+00       8.22127e-01       6.00349e-04       4.10870e+02
  7.000      2.37746e+02       7.00961e+00       7.19263e-01       5.93602e-04       4.05033e+02
  7.100      2.37036e+02       6.66709e+00       4.85892e-01       5.86900e-04       3.99263e+02
  7.200      2.36329e+02       6.22417e+00       1.02415e-01       5.80244e-04       3.93559e+02
  7.300      2.35623e+02       5.68545e+00      -4.19358e-01       5.73643e-04       3.87920e+02
  7.400      2.34913e+02       5.05881e+00      -1.06228e+00       5.67107e-04       3.82344e+02
  7.500      2.34194e+02       4.35213e+00      -1.80922e+00       5.60647e-04       3.76832e+02
  7.600      2.33463e+02       3.57506e+00      -2.64109e+00       5.54270e-04       3.71382e+02
  7.700      2.32719e+02       2.75819e+00      -3.51603e+00       5.47973e-04       3.65993e+02
  7.800      2.31967e+02       1.94564e+00      -4.37741e+00       5.41746e-04       3.60666e+02
  7.900      2.31212e+02       1.18176e+00      -5.16837e+00       5.35579e-04       3.55399e+02
  8.000      2.30458e+02       5.10901e-01      -5.83203e+00       5.29462e-04       3.50193e+02
  8.100      2.29707e+02      -2.97866e-02      -6.32059e+00       5.23385e-04       3.45047e+02
  8.200      2.28962e+02      -4.35315e-01      -6.62678e+00       5.17350e-04       3.39961e+02
  8.300      2.28221e+02      -7.09710e-01      -6.75468e+00       5.11355e-04       3.34934e+02
  8.400      2.27484e+02      -8.56987e-01      -6.70835e+00       5.05401e-04       3.29966e+02
  8.500      2.26751e+02      -8.81167e-01      -6.49186e+00       4.99490e-04       3.25056e+02
  8.600      2.26026e+02      -7.87542e-01      -6.11223e+00       4.93613e-04       3.20204e+02
  8.700      2.25328e+02      -5.86667e-01      -5.58874e+00       4.87731e-04       3.15411e+02
  8.800      2.24678e+02      -2.90458e-01      -4.94380e+00       4.81799e-04       3.10676e+02
  8.900      2.24100e+02       8.91618e-02      -4.19985e+00       4.75772e-04       3.06001e+02
  9.000      2.23617e+02       5.40282e-01      -3.37930e+00       4.69607e-04       3.01385e+02
  9.100      2.23250e+02       1.05116e+00      -2.50441e+00       4.63269e-04       2.96829e+02
  9.200      2.23000e+02       1.61196e+00      -1.59569e+00       4.56767e-04       2.92335e+02
  9.300      2.22855e+02       2.21396e+00      -6.72557e-01       4.50133e-04       2.87903e+02
  9.400      2.22808e+02       2.84846e+00       2.45554e-01       4.43401e-04       2.83536e+02
  9.500      2.22845e+02       3.50676e+00       1.13924e+00       4.36601e-04       2.79235e+02
  9.600      2.22958e+02       4.18017e+00       1.98905e+00       4.29764e-04       2.75002e+02
  9.700      2.23135e+02       4.85844e+00       2.77868e+00       4.22919e-04       2.70837e+02
  9.800      2.23366e+02       5.52523e+00       3.50422e+00       4.16092e-04       2.66740e+02
  9.900      2.23639e+02       6.16268e+00       4.16487e+00       4.09306e-04       2.62711e+02
 10.000      2.23943e+02       6.75289e+00       4.75983e+00       4.02585e-04       2.58747e+02
 10.100      2.24266e+02       7.27800e+00       5.28830e+00       3.95949e-04       2.54849e+02
 10.200      2.24597e+02       7.72012e+00       5.74948e+00       3.89418e-04       2.51016e+02
 10.300      2.24925e+02       8.06438e+00       6.14356e+00       3.83010e-04       2.47246e+02
 10.400      2.25245e+02       8.32354e+00       6.47996e+00       3.76731e-04       2.43539e+02
 10.500      2.25554e+02       8.52533e+00       6.77306e+00       3.70582e-04       2.39892e+02
 10.600      2.25847e+02       8.69764e+00       7.03730e+00       3.64566e-04       2.36305e+02
 10.700      2.26123e+02       8.86832e+00       7.28709e+00       3.58682e-04       2.32775e+02
 10.800      2.26378e+02       9.06527e+00       7.53689e+00       3.52931e-04       2.29301e+02
 10.900      2.26609e+02       9.31635e+00       7.80112e+00       3.47315e-04       2.25883e+02
 11.000      2.26813e+02       9.64597e+00       8.09259e+00       3.41833e-04       2.22518e+02
 11.100      2.26988e+02       1.00473e+01       8.40939e+00       3.36485e-04       2.19205e+02
 11.200      2.27130e+02       1.04967e+01       8.74178e+00       3.31271e-04       2.15943e+02
 11.300      2.27237e+02       1.09707e+01       9.08000e+00       3.26189e-04       2.12731e+02
 11.400      2.27307e+02       1.14456e+01       9.41424e+00       3.21240e-04       2.09568e+02
 11.500      2.27338e+02       1.18978e+01       9.73472e+00       3.16421e-04       2.06452e+02
 11.600      2.27326e+02       1.23037e+01       1.00317e+01       3.11734e-04       2.03383e+02
 11.700      2.27269e+02       1.26395e+01       1.02952e+01       3.07175e-04       2.00359e+02
 11.800      2.27167e+02       1.28859e+01       1.05173e+01       3.02745e-04       1.97380e+02
 11.900      2.27022e+02       1.30473e+01       1.06985e+01       2.98432e-04       1.94444e+02
 12.000      2.26840e+02       1.31365e+01       1.08430e+01       2.94227e-04       1.91551e+02
 12.100      2.26628e+02       1.31666e+01       1.09548e+01       2.90118e-04       1.88699e+02
 12.200      2.26390e+02       1.31505e+01       1.10378e+01       2.86094e-04       1.85887e+02
 12.300      2.26133e+02       1.31011e+01       1.10961e+01       2.82147e-04       1.83114e+02
 12.400      2.25862e+02       1.30314e+01       1.11337e+01       2.78267e-04       1.80379e+02
 12.500      2.25584e+02       1.29544e+01       1.11546e+01       2.74444e-04       1.77682e+02
 12.600      2.25304e+02       1.28829e+01       1.11628e+01       2.70671e-04       1.75022e+02
 12.700      2.25026e+02       1.28275e+01       1.11615e+01       2.66940e-04       1.72397e+02
 12.800      2.24755e+02       1.27889e+01       1.11501e+01       2.63249e-04       1.69808e+02
 12.900      2.24491e+02       1.27654e+01       1.11273e+01       2.59596e-04       1.67255e+02
 13.000      2.24236e+02       1.27551e+01       1.10916e+01       2.55979e-04       1.64737e+02
 13.100      2.23992e+02       1.27562e+01       1.10417e+01       2.52397e-04       1.62255e+02
 13.200      2.23761e+02       1.27668e+01       1.09762e+01       2.48848e-04       1.59809e+02
 13.300      2.23545e+02       1.27852e+01       1.08936e+01       2.45331e-04       1.57398e+02
 13.400      2.23345e+02       1.28096e+01       1.07926e+01       2.41844e-04       1.55022e+02
 13.500      2.23164e+02       1.28381e+01       1.06716e+01       2.38387e-04       1.52682e+02
 13.600      2.23004e+02       1.28689e+01       1.05295e+01       2.34957e-04       1.50378e+02
 13.700      2.22865e+02       1.29001e+01       1.03653e+01       2.31555e-04       1.48108e+02
 13.800      2.22746e+02       1.29293e+01       1.01830e+01       2.28182e-04       1.45872e+02
 13.900      2.22644e+02       1.29537e+01       9.98838e+00       2.24839e-04       1.43669e+02
 14.000      2.22557e+02       1.29706e+01       9.78709e+00       2.21528e-04       1.41499e+02
 14.100      2.22481e+02       1.29773e+01       9.58490e+00       2.18252e-04       1.39359e+02
 14.200      2.22414e+02       1.29711e+01       9.38754e+00       2.15013e-04       1.37248e+02
 14.300      2.22352e+02       1.29492e+01       9.20074e+00       2.11811e-04       1.35167e+02
 14.400      2.22293e+02       1.29089e+01       9.03026e+00       2.08648e-04       1.33114e+02
 14.500      2.22235e+02       1.28475e+01       8.88182e+00       2.05527e-04       1.31088e+02
 14.600      2.22173e+02       1.27623e+01       8.76116e+00       2.02447e-04       1.29088e+02
 14.700      2.22106e+02       1.26505e+01       8.67402e+00       1.99411e-04       1.27114e+02
 14.800      2.22031e+02       1.25095e+01       8.62614e+00       1.96420e-04       1.25164e+02
 14.900      2.21944e+02       1.23373e+01       8.62182e+00       1.93474e-04       1.23239e+02
 15.000      2.21847e+02       1.21358e+01       8.65801e+00       1.90573e-04       1.21338e+02
 15.100      2.21740e+02       1.19085e+01       8.72928e+00       1.87719e-04       1.19463e+02
 15.200      2.21625e+02       1.16585e+01       8.83020e+00       1.84910e-04       1.17615e+02
 15.300      2.21503e+02       1.13892e+01       8.95535e+00       1.82146e-04       1.15793e+02
 15.400      2.21374e+02       1.11039e+01       9.09929e+00       1.79429e-04       1.13999e+02
 15.500      2.21240e+02       1.08058e+01       9.25660e+00       1.76756e-04       1.12233e+02
 15.600      2.21101e+02       1.04982e+01       9.42184e+00       1.74130e-04       1.10496e+02
 15.700      2.20960e+02       1.01844e+01       9.58959e+00       1.71548e-04       1.08788e+02
 15.800      2.20816e+02       9.86773e+00       9.75441e+00       1.69011e-04       1.07110e+02
 15.900      2.20672e+02       9.55146e+00       9.91088e+00       1.66519e-04       1.05461e+02
 16.000      2.20528e+02       9.23887e+00       1.00536e+01       1.64072e-04       1.03844e+02
 16.100      2.20385e+02       8.93325e+00       1.01771e+01       1.61669e-04       1.02256e+02
 16.200      2.20244e+02       8.63789e+00       1.02759e+01       1.59310e-04       1.00700e+02
 16.300      2.20107e+02       8.35599e+00       1.03448e+01       1.56995e-04       9.91746e+01
 16.400      2.19974e+02       8.08875e+00       1.03822e+01       1.54722e-04       9.76796e+01
 16.500      2.19844e+02       7.83566e+00       1.03892e+01       1.52489e-04       9.62135e+01
 16.600      2.19718e+02       7.59615e+00       1.03675e+01       1.50296e-04       9.47750e+01
 16.700      2.19596e+02       7.36963e+00       1.03185e+01       1.48139e-04       9.33628e+01
 16.800      2.19477e+02       7.15552e+00       1.02437e+01       1.46017e-04       9.19757e+01
 16.900      2.19361e+02       6.95324e+00       1.01445e+01       1.43928e-04       9.06124e+01
 17.000      2.19249e+02       6.76222e+00       1.00225e+01       1.41871e-04       8.92719e+01
 17.100      2.19140e+02       6.58186e+00       9.87906e+00       1.39845e-04       8.79529e+01
 17.200      2.19034e+02       6.41158e+00       9.71577e+00       1.37847e-04       8.66546e+01
 17.300      2.18931e+02       6.25083e+00       9.53407e+00       1.35877e-04       8.53759e+01
 17.400      2.18832e+02       6.09899e+00       9.33544e+00       1.33932e-04       8.41158e+01
 17.500      2.18734e+02       5.95550e+00       9.12136e+00       1.32013e-04       8.28734e+01
 17.600      2.18640e+02       5.81978e+00       8.89331e+00       1.30117e-04       8.16480e+01
 17.700      2.18548e+02       5.69124e+00       8.65278e+00       1.28243e-04       8.04385e+01
 17.800      2.18459e+02       5.56931e+00       8.40125e+00       1.26391e-04       7.92444e+01
 17.900      2.18373e+02       5.45340e+00       8.14018e+00       1.24559e-04       7.80648e+01
 18.000      2.18288e+02       5.34294e+00       7.87108e+00       1.22746e-04       7.68990e+01
 18.100      2.18206e+02       5.23734e+00       7.59542e+00       1.20952e-04       7.57463e+01
 18.200      2.18126e+02       5.13602e+00       7.31467e+00       1.19175e-04       7.46061e+01
 18.300      2.18049e+02       5.03841e+00       7.03033e+00       1.17414e-04       7.34778e+01
 18.400      2.17973e+02       4.94391e+00       6.74387e+00       1.15670e-04       7.23608e+01
 18.500      2.17899e+02       4.85195e+00       6.45678e+00       1.13940e-04       7.12546e+01
 18.600      2.17827e+02       4.76196e+00       6.17052e+00       1.12224e-04       7.01586e+01
 18.700      2.17757e+02       4.67344e+00       5.88651e+00       1.10523e-04       6.90725e+01
 18.800      2.17689e+02       4.58658e+00       5.60556e+00       1.08835e-04       6.79966e+01
 18.900      2.17622e+02       4.50179e+00       5.32829e+00       1.07163e-04       6.69316e+01
 19.000      2.17558e+02       4.41949e+00       5.05530e+00       1.05507e-04       6.58779e+01
 19.100      2.17497e+02       4.34009e+00       4.78721e+00       1.03868e-04       6.48362e+01
 19.200      2.17438e+02       4.26401e+00       4.52463e+00       1.02247e-04       6.38067e+01
 19.300      2.17382e+02       4.19167e+00       4.26819e+00       1.00644e-04       6.27902e+01
 19.400      2.17330e+02       4.12349e+00       4.01847e+00       9.90593e-05       6.17868e+01
 19.500      2.17280e+02       4.05989e+00       3.77610e+00       9.74946e-05       6.07971e+01
 19.600      2.17234e+02       4.00127e+00       3.54168e+00       9.59501e-05       5.98213e+01
 19.700      2.17192e+02       3.94807e+00       3.31584e+00       9.44262e-05       5.88598e+01
 19.800      2.17154e+02       3.90070e+00       3.09918e+00       9.29233e-05       5.79129e+01
 19.900      2.17120e+02       3.85957e+00       2.89231e+00       9.14420e-05       5.69807e+01
 20.000      2.17091e+02       3.82511e+00       2.69585e+00       8.99825e-05       5.60636e+01
 20.100      2.17066e+02       3.79773e+00       2.51040e+00       8.85452e-05       5.51618e+01
 20.200      2.17046e+02       3.77784e+00       2.33658e+00       8.71305e-05       5.42754e+01
 20.300      2.17030e+02       3.76588e+00       2.17501e+00       8.57385e-05       5.34046e+01
